Time (s),X_pos (m),Y_pos (m),Z_pos (m),Phi_rot (rad),Theta_rot (rad),Psi_rot (rad)
0.0,2.5,2.5,0.5,0.0,0.0,0.0
0.05,2.5001,2.5001,0.4957,-0.1915,0.0903,-0.0066
0.1,2.5159,2.5444,0.5671,-0.8641,0.2178,0.0714
0.15,2.5419,2.6423,0.6775,-1.0433,0.19,0.4815
0.2,2.5617,2.7254,0.7509,-0.8482,0.0488,0.9284
0.25,2.5864,2.8294,0.8207,-0.6357,-0.2269,1.4291
0.3,2.6074,2.9319,0.8716,-0.3145,-0.3075,1.7098
0.35,2.6253,3.0313,0.9075,0.185,-0.1168,1.8755
0.4,2.6585,3.1313,0.966,0.4734,-0.1656,1.966
0.45,2.7215,3.2339,1.0599,0.4909,-0.2677,1.9519
0.5,2.8032,3.3352,1.1603,0.4404,-0.2254,1.9702
0.55,2.8965,3.4359,1.2578,0.3139,-0.2069,1.9439
0.6,2.9951,3.5358,1.3444,0.0516,-0.0257,1.9322
0.65,3.0945,3.6357,1.4165,-0.0648,0.07,1.9015
0.7,3.1932,3.7358,1.4739,-0.02,-0.0303,1.8777
0.75,3.2916,3.8352,1.5279,-0.0114,-0.0209,1.8303
0.8,3.39,3.934,1.5848,0.0401,0.0271,1.7514
0.85,3.489,4.0335,1.6405,0.0427,0.0233,1.6426
0.9,3.5888,4.1335,1.6911,0.0095,-0.0088,1.5091
0.95,3.6888,4.2334,1.7333,-0.0116,-0.0146,1.359
1.0,3.7886,4.3332,1.7663,-0.0034,0.0075,1.1922
1.05,3.8885,4.433,1.7928,0.0022,0.0108,1.0166
1.1,3.9885,4.5331,1.8179,0.003,-0.0252,0.848
1.15,4.0882,4.6326,1.8413,0.0406,-0.0284,0.6955
1.2,4.188,4.731,1.8637,0.0717,-0.0341,0.5605
1.25,4.2879,4.8275,1.8854,0.1022,-0.0507,0.4447
1.3,4.3879,4.9213,1.9058,0.1401,-0.0491,0.3498
1.35,4.4879,5.0115,1.9258,0.1652,-0.0623,0.2704
1.4,4.5875,5.0975,1.9452,0.1856,-0.0746,0.2068
1.45,4.6863,5.1788,1.9638,0.2007,-0.0889,0.156
1.5,4.7837,5.255,1.9815,0.207,-0.1174,0.1135
1.55,4.879,5.3259,1.9984,0.209,-0.1467,0.0798
1.6,4.9711,5.3914,2.0147,0.207,-0.1736,0.0538
1.65,5.0592,5.4515,2.0308,0.2017,-0.195,0.0346
1.7,5.1427,5.5063,2.047,0.1936,-0.2101,0.0209
1.75,5.221,5.5561,2.0634,0.1833,-0.2187,0.0118
1.8,5.2939,5.6011,2.08,0.1714,-0.2214,0.006
1.85,5.3613,5.6417,2.0968,0.1587,-0.2191,0.0026
1.9,5.4232,5.6782,2.1136,0.1458,-0.2128,0.0009
1.95,5.4798,5.7111,2.1304,0.133,-0.2036,0.0002
2.0,5.5314,5.7406,2.1471,0.1208,-0.1924,0.0
2.05,5.5871,5.7721,2.1669,0.1071,-0.1773,0.0003
2.1,5.6287,5.7953,2.1832,0.0966,-0.1641,0.0006
2.15,5.6663,5.8162,2.1992,0.087,-0.1509,0.0009
2.2,5.7002,5.835,2.2149,0.0782,-0.138,0.0011
2.25,5.7307,5.8518,2.2303,0.0703,-0.1257,0.0013
2.3,5.7582,5.8669,2.2454,0.0631,-0.114,0.0014
2.35,5.7829,5.8805,2.2602,0.0567,-0.1031,0.0014
2.4,5.805,5.8927,2.2747,0.0509,-0.093,0.0013
2.45,5.825,5.9036,2.2889,0.0457,-0.0838,0.0012
2.5,5.8429,5.9134,2.3027,0.041,-0.0753,0.0011
2.55,5.8589,5.9222,2.3163,0.0368,-0.0677,0.001
2.6,5.8734,5.9301,2.3296,0.0331,-0.0608,0.0009
2.65,5.8863,5.9373,2.3427,0.0297,-0.0546,0.0008
2.7,5.8979,5.9436,2.3554,0.0267,-0.049,0.0007
2.75,5.9084,5.9494,2.3678,0.024,-0.0439,0.0006
2.8,5.9177,5.9545,2.38,0.0215,-0.0394,0.0005
2.85,5.9261,5.9592,2.3919,0.0193,-0.0354,0.0004
2.9,5.9337,5.9633,2.4036,0.0174,-0.0317,0.0003
2.95,5.9405,5.9671,2.415,0.0156,-0.0285,0.0003
3.0,5.9466,5.9704,2.4262,0.014,-0.0256,0.0002
3.05,5.952,5.9735,2.4371,0.0126,-0.0229,0.0002
3.1,5.9569,5.9762,2.4477,0.0113,-0.0206,0.0002
3.15,5.9614,5.9786,2.4582,0.0102,-0.0185,0.0001
3.2,5.9653,5.9808,2.4684,0.0092,-0.0166,0.0001
3.25,5.9689,5.9828,2.4783,0.0082,-0.0149,0.0001
3.3,5.9721,5.9845,2.4881,0.0074,-0.0134,0.0001
3.35,5.9749,5.9861,2.4976,0.0066,-0.012,0.0001
3.4,5.9775,5.9876,2.507,0.006,-0.0108,0.0
3.45,5.9798,5.9888,2.5161,0.0054,-0.0097,0.0
3.5,5.9819,5.99,2.525,0.0048,-0.0087,0.0
3.55,5.9837,5.991,2.5338,0.0043,-0.0078,0.0
3.6,5.9854,5.9919,2.5423,0.0039,-0.007,0.0
3.65,5.9869,5.9928,2.5506,0.0035,-0.0063,0.0
3.7,5.9883,5.9935,2.5588,0.0031,-0.0057,0.0
3.75,5.9895,5.9942,2.5668,0.0028,-0.0051,0.0
3.8,5.9906,5.9948,2.5746,0.0025,-0.0046,0.0
3.85,5.9915,5.9953,2.5822,0.0023,-0.0041,0.0
3.9,5.9924,5.9958,2.5897,0.002,-0.0037,0.0
3.95,5.9932,5.9962,2.597,0.0018,-0.0033,0.0
4.0,5.9939,5.9966,2.6042,0.0016,-0.003,0.0
4.05,5.9945,5.997,2.6111,0.0015,-0.0027,0.0
4.1,5.9951,5.9973,2.618,0.0013,-0.0024,0.0
4.15,5.9956,5.9976,2.6246,0.0012,-0.0021,0.0
4.2,5.9961,5.9978,2.6312,0.0011,-0.0019,0.0
4.25,5.9965,5.998,2.6376,0.001,-0.0017,0.0
4.3,5.9968,5.9982,2.6438,0.0009,-0.0015,0.0
4.35,5.9972,5.9984,2.6499,0.0008,-0.0014,0.0
4.4,5.9975,5.9986,2.6559,0.0007,-0.0012,0.0
4.45,5.9977,5.9987,2.6617,0.0006,-0.0011,0.0
4.5,5.998,5.9989,2.6674,0.0006,-0.001,0.0
4.55,5.9982,5.999,2.673,0.0005,-0.0009,0.0
4.6,5.9984,5.9991,2.6785,0.0004,-0.0008,0.0
4.65,5.9985,5.9992,2.6838,0.0004,-0.0007,0.0
4.7,5.9987,5.9993,2.6891,0.0004,-0.0006,0.0
4.75,5.9988,5.9993,2.6942,0.0003,-0.0006,0.0
4.8,5.9989,5.9994,2.6992,0.0003,-0.0005,0.0
4.85,5.9991,5.9995,2.7041,0.0003,-0.0005,0.0
4.9,5.9992,5.9995,2.7088,0.0002,-0.0004,0.0
4.95,5.9992,5.9996,2.7135,0.0002,-0.0004,0.0
5.0,5.9993,5.9996,2.7181,0.0002,-0.0003,0.0
5.05,5.9994,5.9997,2.7226,0.0002,-0.0003,0.0
5.1,5.9995,5.9997,2.7269,0.0001,-0.0003,0.0
5.15,5.9995,5.9997,2.7312,0.0001,-0.0002,0.0
5.2,5.9996,5.9998,2.7354,0.0001,-0.0002,0.0
5.25,5.9996,5.9998,2.7395,0.0001,-0.0002,0.0
5.3,5.9996,5.9998,2.7435,0.0001,-0.0002,0.0
5.35,5.9997,5.9998,2.7474,0.0001,-0.0002,0.0
5.4,5.9997,5.9998,2.7512,0.0001,-0.0001,0.0
5.45,5.9997,5.9999,2.7549,0.0001,-0.0001,0.0
5.5,5.9998,5.9999,2.7586,0.0001,-0.0001,0.0
5.55,5.9998,5.9999,2.7622,0.0001,-0.0001,0.0
5.6,5.9998,5.9999,2.7657,0.0,-0.0001,0.0
5.65,5.9998,5.9999,2.7691,0.0,-0.0001,0.0
5.7,5.9999,5.9999,2.7724,0.0,-0.0001,0.0
5.75,5.9999,5.9999,2.7757,0.0,-0.0001,0.0
5.8,5.9999,5.9999,2.7789,0.0,-0.0001,0.0
5.85,5.9999,5.9999,2.782,0.0,-0.0001,0.0
5.9,5.9999,5.9999,2.7851,0.0,-0.0,0.0
5.95,5.9999,6.0,2.7881,0.0,-0.0,0.0
6.0,5.9999,6.0,2.791,0.0,-0.0,0.0
6.05,5.9999,6.0,2.7939,0.0,-0.0,0.0
6.1,5.9999,6.0,2.7967,0.0,-0.0,0.0
6.15,5.9999,6.0,2.7994,0.0,-0.0,0.0
6.2,6.0,6.0,2.8021,0.0,-0.0,0.0
6.25,6.0,6.0,2.8047,0.0,-0.0,0.0
6.3,6.0,6.0,2.8073,0.0,-0.0,0.0
6.35,6.0,6.0,2.8098,0.0,-0.0,0.0
6.4,6.0,6.0,2.8122,0.0,-0.0,0.0
6.45,6.0,6.0,2.8146,0.0,-0.0,0.0
6.5,6.0,6.0,2.8169,0.0,-0.0,0.0
6.55,6.0,6.0,2.8192,0.0,-0.0,0.0
6.6,6.0,6.0,2.8215,0.0,-0.0,0.0
6.65,6.0,6.0,2.8237,0.0,-0.0,0.0
6.7,6.0,6.0,2.8258,0.0,-0.0,0.0
6.75,6.0,6.0,2.8279,0.0,-0.0,0.0
6.8,6.0,6.0,2.8299,0.0,-0.0,0.0
6.85,6.0,6.0,2.8319,0.0,-0.0,0.0
6.9,6.0,6.0,2.8339,0.0,-0.0,0.0
6.95,6.0,6.0,2.8358,0.0,-0.0,0.0
7.0,6.0,6.0,2.8377,0.0,-0.0,0.0
7.05,6.0,6.0,2.8395,0.0,-0.0,0.0
7.1,6.0,6.0,2.8413,0.0,-0.0,0.0
7.15,6.0,6.0,2.8431,0.0,-0.0,0.0
7.2,6.0,6.0,2.8448,0.0,-0.0,0.0
7.25,6.0,6.0,2.8464,0.0,-0.0,0.0
7.3,6.0,6.0,2.8481,0.0,-0.0,0.0
7.35,6.0,6.0,2.8497,0.0,-0.0,0.0
7.4,6.0,6.0,2.8512,0.0,-0.0,0.0
7.45,6.0,6.0,2.8528,0.0,-0.0,0.0
7.5,6.0,6.0,2.8543,0.0,-0.0,0.0
7.55,6.0,6.0,2.8557,0.0,-0.0,0.0
7.6,6.0,6.0,2.8572,0.0,-0.0,0.0
7.65,6.0,6.0,2.8586,0.0,-0.0,0.0
7.7,6.0,6.0,2.8599,0.0,-0.0,0.0
7.75,6.0,6.0,2.8613,0.0,-0.0,0.0
7.8,6.0,6.0,2.8626,0.0,-0.0,0.0
7.85,6.0,6.0,2.8639,0.0,-0.0,0.0
7.9,6.0,6.0,2.8651,0.0,-0.0,0.0
7.95,6.0,6.0,2.8663,0.0,-0.0,0.0
8.0,6.0,6.0,2.8675,0.0,-0.0,0.0
8.05,6.0,6.0,2.8687,0.0,-0.0,0.0
8.1,6.0,6.0,2.8699,0.0,-0.0,0.0
8.15,6.0,6.0,2.871,0.0,-0.0,0.0
8.2,6.0,6.0,2.8721,0.0,-0.0,0.0
8.25,6.0,6.0,2.8732,0.0,-0.0,0.0
8.3,6.0,6.0,2.8742,0.0,-0.0,0.0
8.35,6.0,6.0,2.8752,0.0,-0.0,0.0
8.4,6.0,6.0,2.8762,0.0,-0.0,0.0
8.45,6.0,6.0,2.8772,0.0,-0.0,0.0
8.5,6.0,6.0,2.8782,0.0,-0.0,0.0
8.55,6.0,6.0,2.8791,0.0,-0.0,0.0
8.6,6.0,6.0,2.88,0.0,-0.0,0.0
8.65,6.0,6.0,2.8809,0.0,-0.0,0.0
8.7,6.0,6.0,2.8818,0.0,-0.0,0.0
8.75,6.0,6.0,2.8827,0.0,-0.0,0.0
8.8,6.0,6.0,2.8835,0.0,-0.0,0.0
8.85,6.0,6.0,2.8843,0.0,-0.0,0.0
8.9,6.0,6.0,2.8851,0.0,-0.0,0.0
8.95,6.0,6.0,2.8859,0.0,-0.0,0.0
9.0,6.0,6.0,2.8867,0.0,-0.0,0.0
9.05,6.0,6.0,2.8874,0.0,-0.0,0.0
9.1,6.0,6.0,2.8881,0.0,-0.0,0.0
9.15,6.0,6.0,2.8889,0.0,-0.0,0.0
9.2,6.0,6.0,2.8896,0.0,-0.0,0.0
9.25,6.0,6.0,2.8903,0.0,-0.0,0.0
9.3,6.0,6.0,2.8909,0.0,-0.0,0.0
9.35,6.0,6.0,2.8916,0.0,-0.0,0.0
9.4,6.0,6.0,2.8922,0.0,-0.0,0.0
9.45,6.0,6.0,2.8928,0.0,-0.0,0.0
9.5,6.0,6.0,2.8935,0.0,-0.0,0.0
9.55,6.0,6.0,2.8941,0.0,-0.0,0.0
9.6,6.0,6.0,2.8946,0.0,-0.0,0.0
9.65,6.0,6.0,2.8952,0.0,-0.0,0.0
9.7,6.0,6.0,2.8958,0.0,-0.0,-0.0
9.75,6.0,6.0,2.8963,0.0,-0.0,-0.0
9.8,6.0,6.0,2.8969,0.0,-0.0,-0.0
9.85,6.0,6.0,2.8974,0.0,-0.0,-0.0
9.9,6.0,6.0,2.8979,0.0,-0.0,-0.0
9.95,6.0,6.0,2.8984,0.0,-0.0,-0.0
10.0,6.0,6.0,2.8989,0.0,-0.0,-0.0
10.05,6.0,6.0,2.8994,0.0,-0.0,-0.0
10.1,6.0,6.0,2.8998,0.0,-0.0,-0.0
10.15,6.0,6.0,2.9003,0.0,-0.0,-0.0
10.2,6.0,6.0,2.9008,0.0,-0.0,-0.0
10.25,6.0,6.0,2.9012,0.0,-0.0,-0.0
10.3,6.0,6.0,2.9016,0.0,-0.0,-0.0
10.35,6.0,6.0,2.902,0.0,-0.0,-0.0
10.4,6.0,6.0,2.9025,0.0,-0.0,-0.0
10.45,6.0,6.0,2.9029,0.0,-0.0,-0.0
10.5,6.0,6.0,2.9032,0.0,-0.0,-0.0
10.55,6.0,6.0,2.9036,0.0,-0.0,-0.0
10.6,6.0,6.0,2.904,0.0,-0.0,-0.0
10.65,6.0,6.0,2.9044,0.0,-0.0,-0.0
10.7,6.0,6.0,2.9047,0.0,-0.0,-0.0
10.75,6.0,6.0,2.9051,0.0,-0.0,-0.0
10.8,6.0,6.0,2.9054,0.0,-0.0,-0.0
10.85,6.0,6.0,2.9058,0.0,-0.0,-0.0
10.9,6.0,6.0,2.9061,0.0,-0.0,-0.0
10.95,6.0,6.0,2.9064,0.0,-0.0,-0.0
11.0,6.0,6.0,2.9067,0.0,-0.0,-0.0
11.05,6.0,6.0,2.907,0.0,-0.0,-0.0
11.1,6.0,6.0,2.9073,0.0,-0.0,-0.0
11.15,6.0,6.0,2.9076,0.0,-0.0,-0.0
11.2,6.0,6.0,2.9079,0.0,-0.0,-0.0
11.25,6.0,6.0,2.9082,0.0,-0.0,-0.0
11.3,6.0,6.0,2.9085,0.0,-0.0,-0.0
11.35,6.0,6.0,2.9087,0.0,-0.0,-0.0
11.4,6.0,6.0,2.909,0.0,-0.0,-0.0
11.45,6.0,6.0,2.9093,0.0,-0.0,-0.0
11.5,6.0,6.0,2.9095,0.0,-0.0,-0.0
11.55,6.0,6.0,2.9098,0.0,-0.0,-0.0
11.6,6.0,6.0,2.91,0.0,-0.0,-0.0
11.65,6.0,6.0,2.9102,0.0,-0.0,-0.0
11.7,6.0,6.0,2.9105,0.0,-0.0,-0.0
11.75,6.0,6.0,2.9107,0.0,-0.0,-0.0
11.8,6.0,6.0,2.9109,0.0,-0.0,-0.0
11.85,6.0,6.0,2.9111,0.0,-0.0,-0.0
11.9,6.0,6.0,2.9113,0.0,-0.0,-0.0
11.95,6.0,6.0,2.9115,0.0,-0.0,-0.0
12.0,6.0,6.0,2.9117,0.0,-0.0,-0.0
12.05,6.0,6.0,2.9119,0.0,-0.0,-0.0
12.1,6.0,6.0,2.9121,0.0,-0.0,-0.0
12.15,6.0,6.0,2.9123,0.0,-0.0,-0.0
12.2,6.0,6.0,2.9125,0.0,-0.0,-0.0
12.25,6.0,6.0,2.9127,0.0,-0.0,-0.0
12.3,6.0,6.0,2.9129,0.0,-0.0,-0.0
12.35,6.0,6.0,2.913,0.0,-0.0,-0.0
12.4,6.0,6.0,2.9132,0.0,-0.0,-0.0
12.45,6.0,6.0,2.9134,0.0,-0.0,-0.0
12.5,6.0,6.0,2.9135,0.0,-0.0,-0.0
12.55,6.0,6.0,2.9137,0.0,-0.0,-0.0
12.6,6.0,6.0,2.9138,0.0,-0.0,-0.0
12.65,6.0,6.0,2.914,0.0,-0.0,-0.0
12.7,6.0,6.0,2.9141,0.0,-0.0,-0.0
12.75,6.0,6.0,2.9143,0.0,-0.0,-0.0
12.8,6.0,6.0,2.9144,0.0,-0.0,-0.0
12.85,6.0,6.0,2.9146,0.0,-0.0,-0.0
12.9,6.0,6.0,2.9147,0.0,-0.0,-0.0
12.95,6.0,6.0,2.9148,0.0,-0.0,-0.0
13.0,6.0,6.0,2.9149,0.0,-0.0,-0.0
13.05,6.0,6.0,2.9151,0.0,-0.0,-0.0
13.1,6.0,6.0,2.9152,0.0,-0.0,-0.0
13.15,6.0,6.0,2.9153,0.0,-0.0,-0.0
13.2,6.0,6.0,2.9154,0.0,-0.0,-0.0
13.25,6.0,6.0,2.9155,0.0,-0.0,-0.0
13.3,6.0,6.0,2.9157,0.0,-0.0,-0.0
13.35,6.0,6.0,2.9158,0.0,-0.0,-0.0
13.4,6.0,6.0,2.9159,0.0,-0.0,-0.0
13.45,6.0,6.0,2.916,0.0,-0.0,-0.0
13.5,6.0,6.0,2.9161,0.0,-0.0,-0.0
13.55,6.0,6.0,2.9162,0.0,-0.0,-0.0
13.6,6.0,6.0,2.9163,0.0,-0.0,-0.0
13.65,6.0,6.0,2.9164,0.0,-0.0,-0.0
13.7,6.0,6.0,2.9165,0.0,-0.0,-0.0
13.75,6.0,6.0,2.9166,0.0,-0.0,-0.0
13.8,6.0,6.0,2.9167,0.0,-0.0,-0.0
13.85,6.0,6.0,2.9167,0.0,-0.0,-0.0
13.9,6.0,6.0,2.9168,0.0,-0.0,-0.0
13.95,6.0,6.0,2.9169,0.0,-0.0,-0.0
14.0,6.0,6.0,2.917,0.0,-0.0,-0.0
14.05,6.0,6.0,2.9171,0.0,-0.0,-0.0
14.1,6.0,6.0,2.9172,0.0,-0.0,-0.0
14.15,6.0,6.0,2.9172,0.0,-0.0,-0.0
14.2,6.0,6.0,2.9173,0.0,-0.0,-0.0
14.25,6.0,6.0,2.9174,0.0,-0.0,-0.0
14.3,6.0,6.0,2.9175,0.0,-0.0,-0.0
14.35,6.0,6.0,2.9175,0.0,-0.0,-0.0
14.4,6.0,6.0,2.9176,0.0,-0.0,-0.0
14.45,6.0,6.0,2.9177,0.0,-0.0,-0.0
14.5,6.0,6.0,2.9177,0.0,-0.0,-0.0
14.55,6.0,6.0,2.9178,0.0,-0.0,-0.0
14.6,6.0,6.0,2.9179,0.0,-0.0,-0.0
14.65,6.0,6.0,2.9179,0.0,-0.0,-0.0
14.7,6.0,6.0,2.918,0.0,-0.0,-0.0
14.75,6.0,6.0,2.918,0.0,-0.0,-0.0
14.8,6.0,6.0,2.9181,0.0,-0.0,-0.0
14.85,6.0,6.0,2.9182,0.0,-0.0,-0.0
14.9,6.0,6.0,2.9182,0.0,-0.0,-0.0
14.95,6.0,6.0,2.9183,0.0,-0.0,-0.0
15.0,6.0,6.0,2.9183,0.0,-0.0,-0.0
15.05,6.0,6.0,2.9184,0.0,-0.0,-0.0
15.1,6.0,6.0,2.9184,0.0,-0.0,-0.0
15.15,6.0,6.0,2.9185,0.0,-0.0,-0.0
15.2,6.0,6.0,2.9185,0.0,-0.0,-0.0
15.25,6.0,6.0,2.9186,0.0,-0.0,-0.0
15.3,6.0,6.0,2.9186,0.0,-0.0,-0.0
15.35,6.0,6.0,2.9187,0.0,-0.0,-0.0
15.4,6.0,6.0,2.9187,0.0,-0.0,-0.0
15.45,6.0,6.0,2.9187,0.0,-0.0,-0.0
15.5,6.0,6.0,2.9188,0.0,-0.0,-0.0
15.55,6.0,6.0,2.9188,0.0,-0.0,-0.0
15.6,6.0,6.0,2.9189,0.0,-0.0,-0.0
15.65,6.0,6.0,2.9189,0.0,-0.0,-0.0
15.7,6.0,6.0,2.9189,0.0,-0.0,-0.0
15.75,6.0,6.0,2.919,0.0,-0.0,-0.0
15.8,6.0,6.0,2.919,0.0,-0.0,-0.0
15.85,6.0,6.0,2.9191,0.0,-0.0,-0.0
15.9,6.0,6.0,2.9191,0.0,-0.0,-0.0
15.95,6.0,6.0,2.9191,0.0,-0.0,-0.0
16.0,6.0,6.0,2.9192,0.0,-0.0,-0.0
16.05,6.0,6.0,2.9192,0.0,-0.0,-0.0
16.1,6.0,6.0,2.9192,0.0,-0.0,-0.0
16.15,6.0,6.0,2.9193,0.0,-0.0,-0.0
16.2,6.0,6.0,2.9193,0.0,-0.0,-0.0
16.25,6.0,6.0,2.9193,-0.0,-0.0,-0.0
16.3,6.0,6.0,2.9193,-0.0,-0.0,-0.0
16.35,6.0,6.0,2.9194,-0.0,-0.0,-0.0
16.4,6.0,6.0,2.9194,-0.0,-0.0,-0.0
16.45,6.0,6.0,2.9194,-0.0,-0.0,-0.0
16.5,6.0,6.0,2.9195,-0.0,0.0,-0.0
16.55,6.0,6.0,2.9195,-0.0,0.0,-0.0
16.6,6.0,6.0,2.9195,-0.0,0.0,-0.0
16.65,6.0,6.0,2.9195,-0.0,0.0,-0.0
16.7,6.0,6.0,2.9196,-0.0,0.0,-0.0
16.75,6.0,6.0,2.9196,-0.0,0.0,-0.0
16.8,6.0,6.0,2.9196,-0.0,-0.0,-0.0
16.85,6.0,6.0,2.9196,-0.0,-0.0,-0.0
16.9,6.0,6.0,2.9196,0.0,-0.0,-0.0
16.95,6.0,6.0,2.9197,-0.0,-0.0,-0.0
17.0,6.0,6.0,2.9197,0.0,-0.0,-0.0
17.05,6.0,6.0,2.9197,0.0,-0.0,-0.0
17.1,6.0,6.0,2.9197,0.0,-0.0,-0.0
17.15,6.0,6.0,2.9198,-0.0,-0.0,-0.0
17.2,6.0,6.0,2.9198,-0.0,-0.0,-0.0
17.25,6.0,6.0,2.9198,-0.0,0.0,-0.0
17.3,6.0,6.0,2.9198,-0.0,0.0,-0.0
17.35,6.0,6.0,2.9198,-0.0,-0.0,-0.0
17.4,6.0,6.0,2.9198,0.0,0.0,-0.0
17.45,6.0,6.0,2.9199,-0.0,0.0,-0.0
17.5,6.0,6.0,2.9199,0.0,0.0,-0.0
17.55,6.0,6.0,2.9199,0.0,0.0,-0.0
17.6,6.0,6.0,2.9199,0.0,-0.0,-0.0
17.65,6.0,6.0,2.9199,0.0,-0.0,-0.0
17.7,6.0,6.0,2.9199,0.0,-0.0,-0.0
17.75,6.0,6.0,2.92,0.0,0.0,-0.0
17.8,6.0,6.0,2.92,0.0,0.0,-0.0
17.85,6.0,6.0,2.92,0.0,0.0,-0.0
17.9,6.0,6.0,2.92,0.0,-0.0,-0.0
17.95,6.0,6.0,2.92,0.0,0.0,-0.0
18.0,6.0,6.0,2.92,0.0,0.0,-0.0
18.05,6.0,6.0,2.9201,0.0,0.0,-0.0
18.1,6.0,6.0,2.9201,0.0,0.0,-0.0
18.15,6.0,6.0,2.9201,-0.0,0.0,-0.0
18.2,6.0,6.0,2.9201,-0.0,0.0,-0.0
18.25,6.0,6.0,2.9201,-0.0,0.0,-0.0
18.3,6.0,6.0,2.9201,0.0,-0.0,-0.0
18.35,6.0,6.0,2.9201,-0.0,-0.0,-0.0
18.4,6.0,6.0,2.9201,-0.0,0.0,-0.0
18.45,6.0,6.0,2.9201,-0.0,-0.0,-0.0
18.5,6.0,6.0,2.9202,-0.0,-0.0,-0.0
18.55,6.0,6.0,2.9202,0.0,-0.0,-0.0
18.6,6.0,6.0,2.9202,0.0,-0.0,-0.0
18.65,6.0,6.0,2.9202,0.0,-0.0,-0.0
18.7,6.0,6.0,2.9202,-0.0,-0.0,-0.0
18.75,6.0,6.0,2.9202,0.0,-0.0,-0.0
18.8,6.0,6.0,2.9202,0.0,-0.0,-0.0
18.85,6.0,6.0,2.9202,0.0,0.0,-0.0
18.9,6.0,6.0,2.9202,0.0,0.0,-0.0
18.95,6.0,6.0,2.9202,-0.0,0.0,-0.0
19.0,6.0,6.0,2.9203,0.0,0.0,-0.0
19.05,6.0,6.0,2.9203,0.0,0.0,-0.0
19.1,6.0,6.0,2.9203,0.0,-0.0,-0.0
19.15,6.0,6.0,2.9203,0.0,-0.0,-0.0
19.2,6.0,6.0,2.9203,0.0,-0.0,-0.0
19.25,6.0,6.0,2.9203,-0.0,-0.0,-0.0
19.3,6.0,6.0,2.9203,-0.0,-0.0,-0.0
19.35,6.0,6.0,2.9203,-0.0,-0.0,-0.0
19.4,6.0,6.0,2.9203,0.0,0.0,-0.0
19.45,6.0,6.0,2.9203,-0.0,-0.0,-0.0
19.5,6.0,6.0,2.9203,0.0,0.0,-0.0
19.55,6.0,6.0,2.9203,0.0,0.0,-0.0
19.6,6.0,6.0,2.9203,-0.0,0.0,-0.0
19.65,6.0,6.0,2.9204,-0.0,0.0,-0.0
19.7,6.0,6.0,2.9204,-0.0,0.0,-0.0
19.75,6.0,6.0,2.9204,-0.0,0.0,-0.0
19.8,6.0,6.0,2.9204,0.0,0.0,-0.0
19.85,6.0,6.0,2.9204,0.0,-0.0,-0.0
19.9,6.0,6.0,2.9204,-0.0,-0.0,-0.0
19.95,6.0,6.0,2.9204,-0.0,-0.0,-0.0
20.0,6.0,6.0,2.9204,-0.0,-0.0,-0.0
20.05,6.0,6.0,2.9204,-0.0,0.0,-0.0
20.1,6.0,6.0,2.9204,0.0,0.0,-0.0
20.15,6.0,6.0,2.9204,0.0,-0.0,-0.0
20.2,6.0,6.0,2.9204,0.0,-0.0,-0.0
20.25,6.0,6.0,2.9204,0.0,-0.0,-0.0
20.3,6.0,6.0,2.9204,0.0,-0.0,-0.0
20.35,6.0,6.0,2.9204,0.0,-0.0,-0.0
20.4,6.0,6.0,2.9204,-0.0,-0.0,-0.0
20.45,6.0,6.0,2.9204,-0.0,0.0,-0.0
20.5,6.0,6.0,2.9204,-0.0,0.0,-0.0
20.55,6.0,6.0,2.9205,-0.0,0.0,-0.0
20.6,6.0,6.0,2.9205,0.0,0.0,-0.0
20.65,6.0,6.0,2.9205,0.0,0.0,-0.0
20.7,6.0,6.0,2.9205,-0.0,-0.0,-0.0
20.75,6.0,6.0,2.9205,-0.0,-0.0,-0.0
20.8,6.0,6.0,2.9205,0.0,-0.0,-0.0
20.85,6.0,6.0,2.9205,0.0,-0.0,-0.0
20.9,6.0,6.0,2.9205,0.0,-0.0,-0.0
20.95,6.0,6.0,2.9205,0.0,-0.0,-0.0
21.0,6.0,6.0,2.9205,0.0,0.0,-0.0
21.05,6.0,6.0,2.9205,-0.0,0.0,-0.0
21.1,6.0,6.0,2.9205,-0.0,-0.0,-0.0
21.15,6.0,6.0,2.9205,-0.0,0.0,-0.0
21.2,6.0,6.0,2.9205,-0.0,0.0,-0.0
21.25,6.0,6.0,2.9205,-0.0,0.0,-0.0
21.3,6.0,6.0,2.9205,-0.0,0.0,-0.0
21.35,6.0,6.0,2.9205,-0.0,0.0,-0.0
21.4,6.0,6.0,2.9205,-0.0,0.0,-0.0
21.45,6.0,6.0,2.9205,-0.0,-0.0,-0.0
21.5,6.0,6.0,2.9205,0.0,-0.0,-0.0
21.55,6.0,6.0,2.9205,0.0,0.0,-0.0
21.6,6.0,6.0,2.9205,0.0,0.0,-0.0
21.65,6.0,6.0,2.9205,0.0,-0.0,-0.0
21.7,6.0,6.0,2.9205,0.0,-0.0,-0.0
21.75,6.0,6.0,2.9205,0.0,-0.0,-0.0
21.8,6.0,6.0,2.9205,0.0,0.0,-0.0
21.85,6.0,6.0,2.9205,-0.0,0.0,-0.0
21.9,6.0,6.0,2.9205,0.0,0.0,-0.0
21.95,6.0,6.0,2.9205,0.0,-0.0,-0.0
22.0,6.0,6.0,2.9205,0.0,-0.0,-0.0
22.05,6.0,6.0,2.9205,0.0,-0.0,-0.0
22.1,6.0,6.0,2.9206,0.0,-0.0,-0.0
22.15,6.0,6.0,2.9206,0.0,-0.0,-0.0
22.2,6.0,6.0,2.9206,-0.0,-0.0,-0.0
22.25,6.0,6.0,2.9206,-0.0,0.0,-0.0
22.3,6.0,6.0,2.9206,-0.0,0.0,-0.0
22.35,6.0,6.0,2.9206,-0.0,0.0,-0.0
22.4,6.0,6.0,2.9206,-0.0,0.0,-0.0
22.45,6.0,6.0,2.9206,-0.0,0.0,-0.0
22.5,6.0,6.0,2.9206,-0.0,0.0,-0.0
22.55,6.0,6.0,2.9206,-0.0,0.0,-0.0
22.6,6.0,6.0,2.9206,-0.0,0.0,-0.0
22.65,6.0,6.0,2.9206,-0.0,0.0,-0.0
22.7,6.0,6.0,2.9206,0.0,0.0,-0.0
22.75,6.0,6.0,2.9206,0.0,0.0,-0.0
22.8,6.0,6.0,2.9206,0.0,0.0,-0.0
22.85,6.0,6.0,2.9206,-0.0,0.0,-0.0
22.9,6.0,6.0,2.9206,-0.0,-0.0,-0.0
22.95,6.0,6.0,2.9206,-0.0,-0.0,-0.0
23.0,6.0,6.0,2.9206,0.0,-0.0,-0.0
23.05,6.0,6.0,2.9206,0.0,-0.0,-0.0
23.1,6.0,6.0,2.9206,0.0,0.0,-0.0
23.15,6.0,6.0,2.9206,-0.0,-0.0,-0.0
23.2,6.0,6.0,2.9206,-0.0,-0.0,-0.0
23.25,6.0,6.0,2.9206,0.0,-0.0,-0.0
23.3,6.0,6.0,2.9206,0.0,-0.0,-0.0
23.35,6.0,6.0,2.9206,-0.0,-0.0,-0.0
23.4,6.0,6.0,2.9206,-0.0,-0.0,-0.0
23.45,6.0,6.0,2.9206,-0.0,0.0,-0.0
23.5,6.0,6.0,2.9206,0.0,0.0,-0.0
23.55,6.0,6.0,2.9206,0.0,0.0,-0.0
23.6,6.0,6.0,2.9206,-0.0,0.0,-0.0
23.65,6.0,6.0,2.9206,0.0,-0.0,-0.0
23.7,6.0,6.0,2.9206,0.0,-0.0,-0.0
23.75,6.0,6.0,2.9206,0.0,-0.0,-0.0
23.8,6.0,6.0,2.9206,-0.0,-0.0,-0.0
23.85,6.0,6.0,2.9206,0.0,-0.0,-0.0
23.9,6.0,6.0,2.9206,0.0,-0.0,-0.0
23.95,6.0,6.0,2.9206,0.0,-0.0,-0.0
24.0,6.0,6.0,2.9206,0.0,0.0,-0.0
24.05,6.0,6.0,2.9206,0.0,0.0,-0.0
24.1,6.0,6.0,2.9206,-0.0,0.0,-0.0
24.15,6.0,6.0,2.9206,-0.0,0.0,-0.0
24.2,6.0,6.0,2.9206,-0.0,0.0,-0.0
24.25,6.0,6.0,2.9206,-0.0,0.0,-0.0
24.3,6.0,6.0,2.9206,-0.0,0.0,-0.0
24.35,6.0,6.0,2.9206,0.0,0.0,-0.0
24.4,6.0,6.0,2.9206,0.0,-0.0,-0.0
24.45,6.0,6.0,2.9206,0.0,-0.0,-0.0
24.5,6.0,6.0,2.9206,0.0,-0.0,-0.0
24.55,6.0,6.0,2.9206,0.0,0.0,-0.0
24.6,6.0,6.0,2.9206,0.0,-0.0,-0.0
24.65,6.0,6.0,2.9206,-0.0,-0.0,-0.0
24.7,6.0,6.0,2.9206,-0.0,-0.0,-0.0
24.75,6.0,6.0,2.9206,-0.0,-0.0,-0.0
24.8,6.0,6.0,2.9206,-0.0,0.0,-0.0
24.85,6.0,6.0,2.9206,-0.0,0.0,-0.0
24.9,6.0,6.0,2.9206,-0.0,0.0,-0.0
24.95,6.0,6.0,2.9206,-0.0,0.0,-0.0
