Time (s),X_pos (m),Y_pos (m),Z_pos (m),Phi_rot (rad),Theta_rot (rad),Psi_rot (rad)
0.0,1.0,1.0,3.5,0.0,0.0,0.0
0.05,1.0001,1.0001,3.4958,-0.2019,0.1969,-0.0154
0.1,1.0433,1.0438,3.5675,-0.7887,0.6304,-0.2592
0.15,1.1341,1.135,3.6772,-0.6455,0.5796,-0.1901
0.2,1.2123,1.2134,3.7531,-0.2343,0.2811,-0.0186
0.25,1.3118,1.3127,3.8322,-0.0826,0.1177,0.0318
0.3,1.4119,1.4125,3.892,-0.1343,0.1491,0.0553
0.35,1.5126,1.5129,3.9323,0.068,-0.0953,0.0971
0.4,1.6099,1.6102,3.9743,0.0302,-0.0716,0.1477
0.45,1.7048,1.7058,4.0274,-0.1685,0.2129,0.1818
0.5,1.8027,1.8051,4.0761,-0.054,0.1821,0.2349
0.55,1.9018,1.9052,4.1076,0.0514,0.0684,0.2761
0.6,2.0016,2.0048,4.1272,0.0053,-0.0028,0.3051
0.65,2.1015,2.1042,4.1454,-0.0257,0.0106,0.3202
0.7,2.2014,2.2042,4.1613,0.0033,-0.0004,0.3147
0.75,2.3013,2.3042,4.1822,0.0099,-0.0017,0.2915
0.8,2.4013,2.4037,4.2285,-0.0265,-0.0053,0.2779
0.85,2.5013,2.5032,4.2851,-0.0538,-0.0033,0.279
0.9,2.6011,2.6031,4.3263,-0.0031,0.0127,0.2737
0.95,2.701,2.703,4.3559,0.0022,0.0027,0.2565
1.0,2.801,2.8029,4.3837,0.0082,-0.0152,0.2287
1.05,2.9007,2.9026,4.4127,-0.0082,0.0085,0.1969
1.1,3.0006,3.0025,4.4417,-0.0044,0.0051,0.1654
1.15,3.1005,3.1025,4.4761,0.0014,-0.0031,0.1364
1.2,3.2004,3.2024,4.5168,-0.0016,0.0059,0.1108
1.25,3.3004,3.3024,4.5628,0.0079,-0.0094,0.0892
1.3,3.4002,3.4022,4.611,-0.0036,0.0062,0.0716
1.35,3.5001,3.5021,4.6592,-0.0045,0.002,0.0571
1.4,3.6,3.6021,4.7105,0.0132,-0.0105,0.0459
1.45,3.6998,3.7019,4.7552,-0.0051,0.0084,0.0375
1.5,3.7997,3.8017,4.7858,-0.0137,0.0126,0.0308
1.55,3.8997,3.9017,4.7998,-0.0022,0.0026,0.0259
1.6,3.9997,4.0017,4.8028,0.0054,-0.0042,0.0224
1.65,4.0996,4.1016,4.7994,0.029,-0.0219,0.0196
1.7,4.1992,4.2011,4.7856,0.062,-0.0544,0.0167
1.75,4.2985,4.3002,4.7554,0.098,-0.0953,0.0123
1.8,4.3977,4.3992,4.7009,0.1349,-0.1358,0.0069
1.85,4.4954,4.4966,4.6325,0.1696,-0.1721,0.0013
1.9,4.5891,4.5901,4.5624,0.1966,-0.1997,-0.0036
1.95,4.6775,4.6782,4.4939,0.2145,-0.2175,-0.007
2.0,4.76,4.7605,4.4277,0.2239,-0.2268,-0.0087
2.05,4.8506,4.851,4.3515,0.2259,-0.2288,-0.0089
2.1,4.9193,4.9195,4.2904,0.2218,-0.2247,-0.0081
2.15,4.9819,4.9819,4.2313,0.2139,-0.2169,-0.0067
2.2,5.0386,5.0386,4.1739,0.2034,-0.2064,-0.0051
2.25,5.0899,5.0898,4.118,0.1912,-0.1942,-0.0034
2.3,5.1361,5.1359,4.0635,0.1782,-0.1809,-0.002
2.35,5.1775,5.1773,4.0103,0.1647,-0.1673,-0.0007
2.4,5.2146,5.2144,3.9583,0.1513,-0.1536,0.0003
2.45,5.2477,5.2475,3.9073,0.1382,-0.1402,0.001
2.5,5.2772,5.277,3.8574,0.1257,-0.1274,0.0015
2.55,5.3035,5.3032,3.8086,0.1138,-0.1152,0.0018
2.6,5.3268,5.3265,3.7608,0.1026,-0.1037,0.0019
2.65,5.3474,5.3472,3.7139,0.0922,-0.0931,0.002
2.7,5.3657,5.3655,3.668,0.0826,-0.0833,0.0019
2.75,5.3818,5.3816,3.6231,0.0738,-0.0743,0.0018
2.8,5.3961,5.3959,3.5791,0.0658,-0.0662,0.0016
2.85,5.4086,5.4085,3.5361,0.0585,-0.0588,0.0014
2.9,5.4197,5.4195,3.4939,0.052,-0.0521,0.0013
2.95,5.4294,5.4293,3.4527,0.046,-0.0461,0.0011
3.0,5.438,5.4379,3.4124,0.0407,-0.0408,0.0009
3.05,5.4455,5.4454,3.3729,0.036,-0.036,0.0008
3.1,5.4521,5.452,3.3343,0.0317,-0.0317,0.0007
3.15,5.4579,5.4579,3.2965,0.0279,-0.0279,0.0005
3.2,5.463,5.463,3.2595,0.0246,-0.0246,0.0004
3.25,5.4675,5.4675,3.2234,0.0216,-0.0216,0.0004
3.3,5.4714,5.4714,3.1881,0.019,-0.019,0.0003
3.35,5.4749,5.4748,3.1535,0.0167,-0.0167,0.0002
3.4,5.4779,5.4779,3.1197,0.0147,-0.0146,0.0002
3.45,5.4806,5.4805,3.0866,0.0129,-0.0128,0.0001
3.5,5.4829,5.4829,3.0543,0.0113,-0.0113,0.0001
3.55,5.4849,5.4849,3.0226,0.0099,-0.0099,0.0001
3.6,5.4867,5.4867,2.9917,0.0087,-0.0087,0.0001
3.65,5.4883,5.4883,2.9614,0.0076,-0.0076,0.0
3.7,5.4897,5.4897,2.9319,0.0067,-0.0067,0.0
3.75,5.4909,5.4909,2.9029,0.0059,-0.0058,0.0
3.8,5.492,5.492,2.8746,0.0051,-0.0051,0.0
3.85,5.4929,5.4929,2.847,0.0045,-0.0045,0.0
3.9,5.4938,5.4938,2.8199,0.004,-0.004,0.0
3.95,5.4945,5.4945,2.7934,0.0035,-0.0035,0.0
4.0,5.4951,5.4951,2.7676,0.0031,-0.003,0.0
4.05,5.4957,5.4957,2.7422,0.0027,-0.0027,0.0
4.1,5.4962,5.4962,2.7175,0.0024,-0.0024,0.0
4.15,5.4966,5.4966,2.6933,0.0021,-0.0021,0.0
4.2,5.497,5.497,2.6696,0.0018,-0.0018,0.0
4.25,5.4974,5.4974,2.6465,0.0016,-0.0016,0.0
4.3,5.4977,5.4977,2.6238,0.0014,-0.0014,0.0
4.35,5.4979,5.4979,2.6017,0.0012,-0.0012,0.0
4.4,5.4982,5.4982,2.5801,0.0011,-0.0011,0.0
4.45,5.4984,5.4984,2.5589,0.001,-0.001,0.0
4.5,5.4986,5.4986,2.5382,0.0009,-0.0009,0.0
4.55,5.4987,5.4987,2.5179,0.0008,-0.0008,0.0
4.6,5.4989,5.4989,2.4981,0.0007,-0.0007,0.0
4.65,5.499,5.499,2.4788,0.0006,-0.0006,0.0
4.7,5.4991,5.4991,2.4598,0.0005,-0.0005,0.0
4.75,5.4992,5.4992,2.4413,0.0005,-0.0005,0.0
4.8,5.4993,5.4993,2.4232,0.0004,-0.0004,0.0
4.85,5.4994,5.4994,2.4055,0.0004,-0.0004,0.0
4.9,5.4995,5.4995,2.3882,0.0003,-0.0003,0.0
4.95,5.4995,5.4995,2.3712,0.0003,-0.0003,0.0
5.0,5.4996,5.4996,2.3547,0.0002,-0.0002,0.0
5.05,5.4996,5.4996,2.3385,0.0002,-0.0002,0.0
5.1,5.4997,5.4997,2.3226,0.0002,-0.0002,0.0
5.15,5.4997,5.4997,2.3072,0.0002,-0.0002,0.0
5.2,5.4997,5.4997,2.292,0.0002,-0.0002,0.0
5.25,5.4998,5.4998,2.2772,0.0001,-0.0001,0.0
5.3,5.4998,5.4998,2.2627,0.0001,-0.0001,0.0
5.35,5.4998,5.4998,2.2485,0.0001,-0.0001,0.0
5.4,5.4998,5.4998,2.2347,0.0001,-0.0001,0.0
5.45,5.4999,5.4999,2.2211,0.0001,-0.0001,0.0
5.5,5.4999,5.4999,2.2079,0.0001,-0.0001,0.0
5.55,5.4999,5.4999,2.1949,0.0001,-0.0001,0.0
5.6,5.4999,5.4999,2.1822,0.0001,-0.0001,0.0
5.65,5.4999,5.4999,2.1699,0.0001,-0.0001,0.0
5.7,5.4999,5.4999,2.1577,0.0,-0.0,0.0
5.75,5.4999,5.4999,2.1459,0.0,-0.0,0.0
5.8,5.4999,5.4999,2.1343,0.0,-0.0,0.0
5.85,5.4999,5.4999,2.123,0.0,-0.0,0.0
5.9,5.4999,5.4999,2.1119,0.0,-0.0,0.0
5.95,5.5,5.5,2.101,0.0,-0.0,0.0
6.0,5.5,5.5,2.0904,0.0,-0.0,0.0
6.05,5.5,5.5,2.0801,0.0,-0.0,0.0
6.1,5.5,5.5,2.0699,0.0,-0.0,0.0
6.15,5.5,5.5,2.06,0.0,-0.0,0.0
6.2,5.5,5.5,2.0503,0.0,-0.0,0.0
6.25,5.5,5.5,2.0408,0.0,-0.0,0.0
6.3,5.5,5.5,2.0316,0.0,-0.0,0.0
6.35,5.5,5.5,2.0225,0.0,-0.0,0.0
6.4,5.5,5.5,2.0136,0.0,-0.0,0.0
6.45,5.5,5.5,2.005,0.0,-0.0,0.0
6.5,5.5,5.5,1.9965,0.0,-0.0,0.0
6.55,5.5,5.5,1.9882,0.0,-0.0,0.0
6.6,5.5,5.5,1.9801,0.0,-0.0,0.0
6.65,5.5,5.5,1.9721,0.0,-0.0,0.0
6.7,5.5,5.5,1.9644,0.0,-0.0,0.0
6.75,5.5,5.5,1.9568,0.0,-0.0,0.0
6.8,5.5,5.5,1.9494,0.0,-0.0,0.0
6.85,5.5,5.5,1.9421,0.0,-0.0,0.0
6.9,5.5,5.5,1.935,0.0,-0.0,0.0
6.95,5.5,5.5,1.9281,0.0,-0.0,0.0
7.0,5.5,5.5,1.9213,0.0,-0.0,0.0
7.05,5.5,5.5,1.9147,0.0,-0.0,0.0
7.1,5.5,5.5,1.9082,0.0,-0.0,0.0
7.15,5.5,5.5,1.9019,0.0,-0.0,0.0
7.2,5.5,5.5,1.8956,0.0,-0.0,0.0
7.25,5.5,5.5,1.8896,0.0,-0.0,0.0
7.3,5.5,5.5,1.8836,0.0,-0.0,0.0
7.35,5.5,5.5,1.8778,0.0,-0.0,0.0
7.4,5.5,5.5,1.8722,0.0,-0.0,0.0
7.45,5.5,5.5,1.8666,0.0,-0.0,0.0
7.5,5.5,5.5,1.8612,0.0,-0.0,0.0
7.55,5.5,5.5,1.8559,0.0,-0.0,0.0
7.6,5.5,5.5,1.8507,0.0,-0.0,0.0
7.65,5.5,5.5,1.8456,0.0,-0.0,0.0
7.7,5.5,5.5,1.8406,0.0,-0.0,0.0
7.75,5.5,5.5,1.8358,0.0,-0.0,0.0
7.8,5.5,5.5,1.831,0.0,-0.0,0.0
7.85,5.5,5.5,1.8264,0.0,-0.0,0.0
7.9,5.5,5.5,1.8219,0.0,-0.0,0.0
7.95,5.5,5.5,1.8174,0.0,-0.0,0.0
8.0,5.5,5.5,1.8131,0.0,-0.0,0.0
8.05,5.5,5.5,1.8088,0.0,-0.0,0.0
8.1,5.5,5.5,1.8047,0.0,-0.0,0.0
8.15,5.5,5.5,1.8006,0.0,-0.0,0.0
8.2,5.5,5.5,1.7966,0.0,-0.0,0.0
8.25,5.5,5.5,1.7928,0.0,-0.0,0.0
8.3,5.5,5.5,1.789,0.0,-0.0,0.0
8.35,5.5,5.5,1.7853,0.0,-0.0,0.0
8.4,5.5,5.5,1.7816,0.0,-0.0,0.0
8.45,5.5,5.5,1.7781,0.0,-0.0,0.0
8.5,5.5,5.5,1.7746,0.0,-0.0,0.0
8.55,5.5,5.5,1.7712,0.0,-0.0,0.0
8.6,5.5,5.5,1.7679,0.0,-0.0,0.0
8.65,5.5,5.5,1.7646,0.0,-0.0,0.0
8.7,5.5,5.5,1.7615,0.0,-0.0,0.0
8.75,5.5,5.5,1.7583,0.0,-0.0,0.0
8.8,5.5,5.5,1.7553,0.0,-0.0,0.0
8.85,5.5,5.5,1.7523,0.0,-0.0,0.0
8.9,5.5,5.5,1.7494,0.0,-0.0,0.0
8.95,5.5,5.5,1.7466,0.0,-0.0,0.0
9.0,5.5,5.5,1.7438,0.0,-0.0,0.0
9.05,5.5,5.5,1.7411,0.0,-0.0,0.0
9.1,5.5,5.5,1.7384,0.0,-0.0,0.0
9.15,5.5,5.5,1.7358,0.0,-0.0,0.0
9.2,5.5,5.5,1.7333,0.0,-0.0,0.0
9.25,5.5,5.5,1.7308,0.0,-0.0,0.0
9.3,5.5,5.5,1.7284,0.0,-0.0,0.0
9.35,5.5,5.5,1.726,0.0,-0.0,0.0
9.4,5.5,5.5,1.7237,0.0,-0.0,0.0
9.45,5.5,5.5,1.7214,0.0,-0.0,0.0
9.5,5.5,5.5,1.7192,0.0,-0.0,0.0
9.55,5.5,5.5,1.717,0.0,-0.0,0.0
9.6,5.5,5.5,1.7149,0.0,-0.0,0.0
9.65,5.5,5.5,1.7128,0.0,-0.0,0.0
9.7,5.5,5.5,1.7108,0.0,-0.0,0.0
9.75,5.5,5.5,1.7088,0.0,-0.0,0.0
9.8,5.5,5.5,1.7068,0.0,-0.0,0.0
9.85,5.5,5.5,1.7049,0.0,-0.0,0.0
9.9,5.5,5.5,1.7031,0.0,-0.0,0.0
9.95,5.5,5.5,1.7013,0.0,-0.0,0.0
10.0,5.5,5.5,1.6995,0.0,-0.0,0.0
10.05,5.5,5.5,1.6977,0.0,-0.0,0.0
10.1,5.5,5.5,1.696,0.0,-0.0,0.0
10.15,5.5,5.5,1.6944,0.0,-0.0,0.0
10.2,5.5,5.5,1.6927,0.0,-0.0,0.0
10.25,5.5,5.5,1.6912,0.0,-0.0,0.0
10.3,5.5,5.5,1.6896,0.0,-0.0,0.0
10.35,5.5,5.5,1.6881,0.0,-0.0,0.0
10.4,5.5,5.5,1.6866,0.0,-0.0,0.0
10.45,5.5,5.5,1.6851,0.0,-0.0,0.0
10.5,5.5,5.5,1.6837,0.0,-0.0,0.0
10.55,5.5,5.5,1.6823,0.0,-0.0,0.0
10.6,5.5,5.5,1.681,0.0,-0.0,0.0
10.65,5.5,5.5,1.6796,0.0,-0.0,0.0
10.7,5.5,5.5,1.6783,0.0,-0.0,0.0
10.75,5.5,5.5,1.6771,0.0,-0.0,0.0
10.8,5.5,5.5,1.6758,0.0,-0.0,0.0
10.85,5.5,5.5,1.6746,0.0,-0.0,0.0
10.9,5.5,5.5,1.6734,0.0,-0.0,0.0
10.95,5.5,5.5,1.6722,0.0,-0.0,0.0
11.0,5.5,5.5,1.6711,0.0,-0.0,-0.0
11.05,5.5,5.5,1.67,0.0,-0.0,-0.0
11.1,5.5,5.5,1.6689,0.0,-0.0,-0.0
11.15,5.5,5.5,1.6678,0.0,-0.0,-0.0
11.2,5.5,5.5,1.6668,0.0,-0.0,-0.0
11.25,5.5,5.5,1.6658,0.0,-0.0,-0.0
11.3,5.5,5.5,1.6648,0.0,-0.0,-0.0
11.35,5.5,5.5,1.6638,0.0,-0.0,-0.0
11.4,5.5,5.5,1.6628,0.0,-0.0,0.0
11.45,5.5,5.5,1.6619,0.0,-0.0,0.0
11.5,5.5,5.5,1.661,0.0,-0.0,0.0
11.55,5.5,5.5,1.6601,0.0,-0.0,-0.0
11.6,5.5,5.5,1.6592,0.0,-0.0,0.0
11.65,5.5,5.5,1.6584,0.0,-0.0,0.0
11.7,5.5,5.5,1.6576,0.0,-0.0,0.0
11.75,5.5,5.5,1.6567,0.0,-0.0,0.0
11.8,5.5,5.5,1.656,0.0,-0.0,0.0
11.85,5.5,5.5,1.6552,0.0,-0.0,0.0
11.9,5.5,5.5,1.6544,0.0,-0.0,0.0
11.95,5.5,5.5,1.6537,0.0,-0.0,0.0
12.0,5.5,5.5,1.6529,0.0,-0.0,0.0
12.05,5.5,5.5,1.6522,0.0,-0.0,0.0
12.1,5.5,5.5,1.6515,0.0,-0.0,0.0
12.15,5.5,5.5,1.6508,0.0,-0.0,-0.0
12.2,5.5,5.5,1.6502,0.0,-0.0,-0.0
12.25,5.5,5.5,1.6495,0.0,-0.0,-0.0
12.3,5.5,5.5,1.6489,0.0,-0.0,-0.0
12.35,5.5,5.5,1.6483,0.0,-0.0,-0.0
12.4,5.5,5.5,1.6477,0.0,-0.0,0.0
12.45,5.5,5.5,1.6471,0.0,-0.0,0.0
12.5,5.5,5.5,1.6465,0.0,-0.0,0.0
12.55,5.5,5.5,1.6459,0.0,-0.0,0.0
12.6,5.5,5.5,1.6454,0.0,-0.0,0.0
12.65,5.5,5.5,1.6448,0.0,-0.0,0.0
12.7,5.5,5.5,1.6443,0.0,-0.0,-0.0
12.75,5.5,5.5,1.6438,0.0,-0.0,0.0
12.8,5.5,5.5,1.6432,0.0,-0.0,0.0
12.85,5.5,5.5,1.6427,0.0,-0.0,0.0
12.9,5.5,5.5,1.6423,0.0,-0.0,0.0
12.95,5.5,5.5,1.6418,0.0,-0.0,0.0
13.0,5.5,5.5,1.6413,0.0,-0.0,0.0
13.05,5.5,5.5,1.6409,0.0,-0.0,0.0
13.1,5.5,5.5,1.6404,0.0,-0.0,0.0
13.15,5.5,5.5,1.64,0.0,-0.0,0.0
13.2,5.5,5.5,1.6395,0.0,-0.0,0.0
13.25,5.5,5.5,1.6391,0.0,-0.0,0.0
13.3,5.5,5.5,1.6387,0.0,-0.0,0.0
13.35,5.5,5.5,1.6383,0.0,-0.0,0.0
13.4,5.5,5.5,1.6379,0.0,-0.0,0.0
13.45,5.5,5.5,1.6376,0.0,-0.0,0.0
13.5,5.5,5.5,1.6372,0.0,-0.0,0.0
13.55,5.5,5.5,1.6368,0.0,-0.0,0.0
13.6,5.5,5.5,1.6365,0.0,-0.0,0.0
13.65,5.5,5.5,1.6361,0.0,-0.0,0.0
13.7,5.5,5.5,1.6358,0.0,-0.0,0.0
13.75,5.5,5.5,1.6354,0.0,-0.0,0.0
13.8,5.5,5.5,1.6351,0.0,-0.0,0.0
13.85,5.5,5.5,1.6348,0.0,-0.0,0.0
13.9,5.5,5.5,1.6345,0.0,-0.0,0.0
13.95,5.5,5.5,1.6342,0.0,-0.0,0.0
14.0,5.5,5.5,1.6339,0.0,-0.0,0.0
14.05,5.5,5.5,1.6336,0.0,-0.0,0.0
14.1,5.5,5.5,1.6333,0.0,-0.0,0.0
14.15,5.5,5.5,1.633,0.0,-0.0,0.0
14.2,5.5,5.5,1.6327,0.0,-0.0,0.0
14.25,5.5,5.5,1.6325,0.0,-0.0,-0.0
14.3,5.5,5.5,1.6322,0.0,-0.0,-0.0
14.35,5.5,5.5,1.632,0.0,-0.0,-0.0
14.4,5.5,5.5,1.6317,0.0,-0.0,-0.0
14.45,5.5,5.5,1.6315,0.0,-0.0,-0.0
14.5,5.5,5.5,1.6312,0.0,-0.0,-0.0
14.55,5.5,5.5,1.631,0.0,-0.0,-0.0
14.6,5.5,5.5,1.6308,0.0,-0.0,-0.0
14.65,5.5,5.5,1.6305,0.0,-0.0,-0.0
14.7,5.5,5.5,1.6303,0.0,-0.0,-0.0
14.75,5.5,5.5,1.6301,0.0,-0.0,-0.0
14.8,5.5,5.5,1.6299,0.0,-0.0,-0.0
14.85,5.5,5.5,1.6297,0.0,-0.0,-0.0
14.9,5.5,5.5,1.6295,0.0,-0.0,0.0
14.95,5.5,5.5,1.6293,0.0,-0.0,0.0
15.0,5.5,5.5,1.6291,0.0,-0.0,0.0
15.05,5.5,5.5,1.6289,0.0,-0.0,0.0
15.1,5.5,5.5,1.6287,0.0,-0.0,0.0
15.15,5.5,5.5,1.6286,0.0,-0.0,0.0
15.2,5.5,5.5,1.6284,0.0,-0.0,0.0
15.25,5.5,5.5,1.6282,0.0,-0.0,0.0
15.3,5.5,5.5,1.6281,0.0,-0.0,0.0
15.35,5.5,5.5,1.6279,0.0,-0.0,0.0
15.4,5.5,5.5,1.6277,0.0,-0.0,0.0
15.45,5.5,5.5,1.6276,0.0,-0.0,0.0
15.5,5.5,5.5,1.6274,0.0,-0.0,0.0
15.55,5.5,5.5,1.6273,0.0,-0.0,0.0
15.6,5.5,5.5,1.6271,0.0,-0.0,0.0
15.65,5.5,5.5,1.627,0.0,-0.0,0.0
15.7,5.5,5.5,1.6268,0.0,-0.0,0.0
15.75,5.5,5.5,1.6267,0.0,-0.0,0.0
15.8,5.5,5.5,1.6266,0.0,-0.0,0.0
15.85,5.5,5.5,1.6264,0.0,-0.0,0.0
15.9,5.5,5.5,1.6263,0.0,-0.0,-0.0
15.95,5.5,5.5,1.6262,0.0,-0.0,0.0
16.0,5.5,5.5,1.6261,0.0,-0.0,0.0
16.05,5.5,5.5,1.6259,0.0,-0.0,0.0
16.1,5.5,5.5,1.6258,0.0,-0.0,0.0
16.15,5.5,5.5,1.6257,-0.0,0.0,0.0
16.2,5.5,5.5,1.6256,-0.0,0.0,0.0
16.25,5.5,5.5,1.6255,-0.0,0.0,0.0
16.3,5.5,5.5,1.6254,-0.0,0.0,0.0
16.35,5.5,5.5,1.6253,-0.0,0.0,0.0
16.4,5.5,5.5,1.6252,-0.0,0.0,0.0
16.45,5.5,5.5,1.6251,-0.0,-0.0,-0.0
16.5,5.5,5.5,1.625,-0.0,-0.0,-0.0
16.55,5.5,5.5,1.6249,-0.0,-0.0,-0.0
16.6,5.5,5.5,1.6248,-0.0,0.0,-0.0
16.65,5.5,5.5,1.6247,0.0,0.0,-0.0
16.7,5.5,5.5,1.6246,0.0,0.0,-0.0
16.75,5.5,5.5,1.6245,0.0,-0.0,-0.0
16.8,5.5,5.5,1.6244,0.0,-0.0,-0.0
16.85,5.5,5.5,1.6244,0.0,-0.0,-0.0
16.9,5.5,5.5,1.6243,0.0,0.0,-0.0
16.95,5.5,5.5,1.6242,0.0,0.0,-0.0
17.0,5.5,5.5,1.6241,0.0,-0.0,-0.0
17.05,5.5,5.5,1.624,0.0,-0.0,-0.0
17.1,5.5,5.5,1.624,0.0,-0.0,0.0
17.15,5.5,5.5,1.6239,0.0,-0.0,0.0
17.2,5.5,5.5,1.6238,0.0,0.0,0.0
17.25,5.5,5.5,1.6238,0.0,0.0,0.0
17.3,5.5,5.5,1.6237,0.0,0.0,0.0
17.35,5.5,5.5,1.6236,0.0,0.0,-0.0
17.4,5.5,5.5,1.6235,0.0,0.0,-0.0
17.45,5.5,5.5,1.6235,-0.0,0.0,-0.0
17.5,5.5,5.5,1.6234,-0.0,-0.0,-0.0
17.55,5.5,5.5,1.6234,0.0,-0.0,-0.0
17.6,5.5,5.5,1.6233,0.0,0.0,-0.0
17.65,5.5,5.5,1.6232,0.0,0.0,0.0
17.7,5.5,5.5,1.6232,-0.0,-0.0,0.0
17.75,5.5,5.5,1.6231,-0.0,-0.0,0.0
17.8,5.5,5.5,1.6231,-0.0,0.0,0.0
17.85,5.5,5.5,1.623,-0.0,0.0,-0.0
17.9,5.5,5.5,1.623,-0.0,0.0,-0.0
17.95,5.5,5.5,1.6229,-0.0,0.0,-0.0
18.0,5.5,5.5,1.6229,-0.0,-0.0,-0.0
18.05,5.5,5.5,1.6228,-0.0,-0.0,-0.0
18.1,5.5,5.5,1.6228,-0.0,0.0,-0.0
18.15,5.5,5.5,1.6227,0.0,-0.0,-0.0
18.2,5.5,5.5,1.6227,0.0,-0.0,-0.0
18.25,5.5,5.5,1.6226,0.0,-0.0,-0.0
18.3,5.5,5.5,1.6226,0.0,0.0,-0.0
18.35,5.5,5.5,1.6225,0.0,-0.0,-0.0
18.4,5.5,5.5,1.6225,0.0,-0.0,-0.0
18.45,5.5,5.5,1.6225,0.0,-0.0,-0.0
18.5,5.5,5.5,1.6224,0.0,-0.0,-0.0
18.55,5.5,5.5,1.6224,0.0,0.0,-0.0
18.6,5.5,5.5,1.6223,0.0,0.0,-0.0
18.65,5.5,5.5,1.6223,0.0,-0.0,-0.0
18.7,5.5,5.5,1.6223,0.0,-0.0,-0.0
18.75,5.5,5.5,1.6222,0.0,-0.0,0.0
18.8,5.5,5.5,1.6222,-0.0,-0.0,0.0
18.85,5.5,5.5,1.6222,-0.0,-0.0,0.0
18.9,5.5,5.5,1.6221,-0.0,-0.0,-0.0
18.95,5.5,5.5,1.6221,0.0,-0.0,-0.0
19.0,5.5,5.5,1.6221,0.0,-0.0,-0.0
19.05,5.5,5.5,1.622,0.0,0.0,-0.0
19.1,5.5,5.5,1.622,0.0,-0.0,0.0
19.15,5.5,5.5,1.622,-0.0,-0.0,0.0
19.2,5.5,5.5,1.622,0.0,-0.0,0.0
19.25,5.5,5.5,1.6219,0.0,0.0,0.0
19.3,5.5,5.5,1.6219,-0.0,0.0,0.0
19.35,5.5,5.5,1.6219,-0.0,0.0,-0.0
19.4,5.5,5.5,1.6218,-0.0,-0.0,-0.0
19.45,5.5,5.5,1.6218,0.0,-0.0,-0.0
19.5,5.5,5.5,1.6218,0.0,-0.0,-0.0
19.55,5.5,5.5,1.6218,0.0,0.0,0.0
19.6,5.5,5.5,1.6217,0.0,0.0,-0.0
19.65,5.5,5.5,1.6217,0.0,-0.0,-0.0
19.7,5.5,5.5,1.6217,0.0,-0.0,0.0
19.75,5.5,5.5,1.6217,0.0,-0.0,0.0
19.8,5.5,5.5,1.6216,-0.0,-0.0,0.0
19.85,5.5,5.5,1.6216,-0.0,-0.0,0.0
19.9,5.5,5.5,1.6216,0.0,-0.0,0.0
19.95,5.5,5.5,1.6216,0.0,0.0,0.0
20.0,5.5,5.5,1.6216,-0.0,-0.0,0.0
20.05,5.5,5.5,1.6215,-0.0,0.0,0.0
20.1,5.5,5.5,1.6215,-0.0,0.0,0.0
20.15,5.5,5.5,1.6215,-0.0,0.0,0.0
20.2,5.5,5.5,1.6215,-0.0,0.0,0.0
20.25,5.5,5.5,1.6215,0.0,-0.0,0.0
20.3,5.5,5.5,1.6214,0.0,0.0,0.0
20.35,5.5,5.5,1.6214,0.0,0.0,0.0
20.4,5.5,5.5,1.6214,0.0,-0.0,0.0
20.45,5.5,5.5,1.6214,0.0,-0.0,-0.0
20.5,5.5,5.5,1.6214,-0.0,-0.0,0.0
20.55,5.5,5.5,1.6214,-0.0,-0.0,0.0
20.6,5.5,5.5,1.6213,0.0,0.0,0.0
20.65,5.5,5.5,1.6213,0.0,0.0,-0.0
20.7,5.5,5.5,1.6213,-0.0,0.0,-0.0
20.75,5.5,5.5,1.6213,-0.0,-0.0,-0.0
20.8,5.5,5.5,1.6213,-0.0,-0.0,-0.0
20.85,5.5,5.5,1.6213,-0.0,-0.0,0.0
20.9,5.5,5.5,1.6213,0.0,-0.0,0.0
20.95,5.5,5.5,1.6212,0.0,0.0,0.0
21.0,5.5,5.5,1.6212,0.0,0.0,-0.0
21.05,5.5,5.5,1.6212,0.0,-0.0,-0.0
21.1,5.5,5.5,1.6212,-0.0,-0.0,-0.0
21.15,5.5,5.5,1.6212,0.0,-0.0,-0.0
21.2,5.5,5.5,1.6212,-0.0,0.0,-0.0
21.25,5.5,5.5,1.6212,-0.0,0.0,-0.0
21.3,5.5,5.5,1.6212,-0.0,0.0,-0.0
21.35,5.5,5.5,1.6211,0.0,0.0,-0.0
21.4,5.5,5.5,1.6211,0.0,0.0,-0.0
21.45,5.5,5.5,1.6211,-0.0,-0.0,0.0
21.5,5.5,5.5,1.6211,-0.0,-0.0,0.0
21.55,5.5,5.5,1.6211,0.0,-0.0,0.0
21.6,5.5,5.5,1.6211,0.0,0.0,0.0
21.65,5.5,5.5,1.6211,-0.0,-0.0,0.0
21.7,5.5,5.5,1.6211,-0.0,-0.0,0.0
21.75,5.5,5.5,1.6211,-0.0,-0.0,0.0
21.8,5.5,5.5,1.6211,-0.0,-0.0,0.0
21.85,5.5,5.5,1.621,0.0,-0.0,0.0
21.9,5.5,5.5,1.621,0.0,-0.0,0.0
21.95,5.5,5.5,1.621,0.0,-0.0,-0.0
22.0,5.5,5.5,1.621,-0.0,0.0,-0.0
22.05,5.5,5.5,1.621,0.0,0.0,-0.0
22.1,5.5,5.5,1.621,0.0,0.0,-0.0
22.15,5.5,5.5,1.621,-0.0,-0.0,-0.0
22.2,5.5,5.5,1.621,0.0,-0.0,-0.0
22.25,5.5,5.5,1.621,0.0,0.0,-0.0
22.3,5.5,5.5,1.621,0.0,0.0,-0.0
22.35,5.5,5.5,1.621,0.0,-0.0,-0.0
22.4,5.5,5.5,1.621,0.0,-0.0,-0.0
22.45,5.5,5.5,1.621,-0.0,-0.0,-0.0
22.5,5.5,5.5,1.6209,-0.0,0.0,-0.0
22.55,5.5,5.5,1.6209,0.0,-0.0,-0.0
22.6,5.5,5.5,1.6209,0.0,-0.0,0.0
22.65,5.5,5.5,1.6209,0.0,0.0,0.0
22.7,5.5,5.5,1.6209,-0.0,0.0,0.0
22.75,5.5,5.5,1.6209,-0.0,-0.0,-0.0
22.8,5.5,5.5,1.6209,-0.0,-0.0,-0.0
22.85,5.5,5.5,1.6209,-0.0,-0.0,-0.0
22.9,5.5,5.5,1.6209,0.0,-0.0,-0.0
22.95,5.5,5.5,1.6209,0.0,0.0,0.0
23.0,5.5,5.5,1.6209,0.0,0.0,0.0
23.05,5.5,5.5,1.6209,0.0,0.0,-0.0
23.1,5.5,5.5,1.6209,0.0,0.0,-0.0
23.15,5.5,5.5,1.6209,-0.0,-0.0,-0.0
23.2,5.5,5.5,1.6209,-0.0,-0.0,0.0
23.25,5.5,5.5,1.6209,0.0,-0.0,0.0
23.3,5.5,5.5,1.6209,-0.0,-0.0,0.0
23.35,5.5,5.5,1.6209,-0.0,-0.0,0.0
23.4,5.5,5.5,1.6208,-0.0,-0.0,0.0
23.45,5.5,5.5,1.6208,0.0,0.0,0.0
23.5,5.5,5.5,1.6208,0.0,0.0,0.0
23.55,5.5,5.5,1.6208,0.0,0.0,0.0
23.6,5.5,5.5,1.6208,0.0,0.0,0.0
23.65,5.5,5.5,1.6208,-0.0,0.0,0.0
23.7,5.5,5.5,1.6208,-0.0,0.0,0.0
23.75,5.5,5.5,1.6208,-0.0,-0.0,0.0
23.8,5.5,5.5,1.6208,0.0,-0.0,-0.0
23.85,5.5,5.5,1.6208,-0.0,0.0,-0.0
23.9,5.5,5.5,1.6208,-0.0,0.0,0.0
23.95,5.5,5.5,1.6208,-0.0,0.0,-0.0
24.0,5.5,5.5,1.6208,0.0,0.0,-0.0
24.05,5.5,5.5,1.6208,0.0,0.0,-0.0
24.1,5.5,5.5,1.6208,-0.0,0.0,-0.0
24.15,5.5,5.5,1.6208,0.0,-0.0,-0.0
24.2,5.5,5.5,1.6208,0.0,-0.0,-0.0
24.25,5.5,5.5,1.6208,0.0,-0.0,-0.0
24.3,5.5,5.5,1.6208,0.0,-0.0,-0.0
24.35,5.5,5.5,1.6208,0.0,-0.0,-0.0
24.4,5.5,5.5,1.6208,0.0,-0.0,-0.0
24.45,5.5,5.5,1.6208,0.0,-0.0,-0.0
24.5,5.5,5.5,1.6208,0.0,-0.0,-0.0
24.55,5.5,5.5,1.6208,-0.0,-0.0,-0.0
24.6,5.5,5.5,1.6208,-0.0,-0.0,-0.0
24.65,5.5,5.5,1.6208,-0.0,-0.0,-0.0
24.7,5.5,5.5,1.6208,0.0,-0.0,-0.0
24.75,5.5,5.5,1.6208,0.0,0.0,-0.0
24.8,5.5,5.5,1.6208,0.0,-0.0,-0.0
24.85,5.5,5.5,1.6208,-0.0,-0.0,0.0
24.9,5.5,5.5,1.6208,-0.0,-0.0,0.0
24.95,5.5,5.5,1.6207,-0.0,0.0,0.0
