Time (s),X_pos (m),Y_pos (m),Z_pos (m),Phi_rot (rad),Theta_rot (rad),Psi_rot (rad)
0.000,2.5000,2.5000,1.5000,0.0000,0.0000,0.0000
0.050,2.5001,2.5001,1.4959,-0.2077,0.2030,-0.0164
0.100,2.5376,2.5382,1.5510,-0.8270,0.6458,-0.2752
0.150,2.6247,2.6263,1.6396,-0.8012,0.6340,-0.2425
0.200,2.7056,2.7084,1.7018,-0.4315,0.3843,-0.0327
0.250,2.8067,2.8110,1.7574,-0.0741,0.0141,0.0723
0.300,2.9076,2.9135,1.7909,0.2302,-0.3067,0.0565
0.350,3.0062,3.0138,1.8075,0.3298,-0.2984,0.0779
0.400,3.1029,3.1118,1.8057,0.3173,-0.0625,0.1730
0.450,3.2002,3.2040,1.7964,0.3769,0.0050,0.2030
0.500,3.2996,3.2850,1.7913,0.4151,-0.0563,0.1668
0.550,3.3996,3.3551,1.7867,0.4308,-0.0672,0.1417
0.600,3.4996,3.4127,1.7842,0.4169,-0.0562,0.1223
0.650,3.5995,3.4562,1.7895,0.3602,-0.0389,0.1043
0.700,3.6994,3.4875,1.8025,0.2497,-0.0191,0.0884
0.750,3.7994,3.5115,1.8191,0.1094,-0.0142,0.0698
0.800,3.8993,3.5333,1.8281,-0.0597,0.0111,0.0545
0.850,3.9993,3.5557,1.8210,-0.2483,0.0142,0.0410
0.900,4.0993,3.5804,1.7988,-0.4140,0.0079,0.0299
0.950,4.1992,3.6189,1.7809,-0.5263,0.0106,0.0174
1.000,4.2992,3.6912,1.7981,-0.4761,0.0080,0.0104
1.050,4.3992,3.7878,1.8358,-0.3043,-0.0046,0.0095
1.100,4.4991,3.8878,1.8580,-0.1241,-0.0312,0.0111
1.150,4.5988,3.9883,1.8639,0.1151,-0.0623,0.0072
1.200,4.6973,4.0868,1.8634,0.1110,-0.0882,-0.0019
1.250,4.7941,4.1834,1.8579,-0.0491,-0.1058,-0.0062
1.300,4.8881,4.2811,1.8536,-0.0513,-0.1273,-0.0072
1.350,4.9785,4.3802,1.8539,-0.0270,-0.1516,-0.0071
1.400,5.0651,4.4800,1.8540,-0.0076,-0.1731,-0.0070
1.450,5.1475,4.5801,1.8538,0.0139,-0.1900,-0.0067
1.500,5.2252,4.6797,1.8537,0.0570,-0.2001,-0.0068
1.550,5.2980,4.7781,1.8530,0.0929,-0.2058,-0.0069
1.600,5.3659,4.8742,1.8513,0.1248,-0.2082,-0.0070
1.650,5.4287,4.9673,1.8493,0.1563,-0.2058,-0.0068
1.700,5.4863,5.0564,1.8474,0.1817,-0.1999,-0.0061
1.750,5.5389,5.1409,1.8460,0.2002,-0.1911,-0.0051
1.800,5.5865,5.2203,1.8451,0.2115,-0.1805,-0.0038
1.850,5.6296,5.2942,1.8448,0.2164,-0.1685,-0.0024
1.900,5.6684,5.3626,1.8450,0.2158,-0.1559,-0.0010
1.950,5.7033,5.4254,1.8456,0.2108,-0.1432,0.0003
2.000,5.7345,5.4829,1.8465,0.2026,-0.1307,0.0013
2.050,5.7678,5.5452,1.8479,0.1898,-0.1163,0.0022
2.100,5.7924,5.5917,1.8493,0.1777,-0.1051,0.0027
2.150,5.8144,5.6339,1.8507,0.1650,-0.0947,0.0030
2.200,5.8340,5.6719,1.8521,0.1521,-0.0850,0.0031
2.250,5.8516,5.7061,1.8535,0.1393,-0.0762,0.0030
2.300,5.8673,5.7369,1.8550,0.1270,-0.0682,0.0029
2.350,5.8813,5.7646,1.8564,0.1154,-0.0610,0.0027
2.400,5.8939,5.7894,1.8578,0.1044,-0.0545,0.0024
2.450,5.9051,5.8116,1.8592,0.0942,-0.0487,0.0021
2.500,5.9151,5.8315,1.8606,0.0848,-0.0435,0.0019
2.550,5.9241,5.8493,1.8619,0.0762,-0.0388,0.0016
2.600,5.9321,5.8652,1.8632,0.0684,-0.0347,0.0014
2.650,5.9392,5.8794,1.8644,0.0613,-0.0310,0.0012
2.700,5.9456,5.8922,1.8657,0.0549,-0.0277,0.0010
2.750,5.9514,5.9036,1.8669,0.0491,-0.0247,0.0008
2.800,5.9565,5.9138,1.8681,0.0439,-0.0221,0.0007
2.850,5.9611,5.9229,1.8692,0.0393,-0.0197,0.0005
2.900,5.9652,5.9310,1.8704,0.0351,-0.0176,0.0004
2.950,5.9688,5.9383,1.8715,0.0314,-0.0158,0.0003
3.000,5.9721,5.9448,1.8726,0.0281,-0.0141,0.0003
3.050,5.9750,5.9506,1.8736,0.0251,-0.0126,0.0002
3.100,5.9777,5.9558,1.8747,0.0224,-0.0113,0.0002
3.150,5.9800,5.9605,1.8757,0.0200,-0.0101,0.0001
3.200,5.9821,5.9647,1.8767,0.0179,-0.0090,0.0001
3.250,5.9840,5.9684,1.8776,0.0160,-0.0081,0.0001
3.300,5.9857,5.9717,1.8786,0.0143,-0.0072,0.0001
3.350,5.9872,5.9747,1.8795,0.0128,-0.0065,0.0001
3.400,5.9885,5.9774,1.8804,0.0115,-0.0058,0.0000
3.450,5.9897,5.9797,1.8813,0.0102,-0.0052,0.0000
3.500,5.9908,5.9819,1.8822,0.0092,-0.0046,0.0000
3.550,5.9918,5.9838,1.8830,0.0082,-0.0041,0.0000
3.600,5.9927,5.9855,1.8839,0.0073,-0.0037,0.0000
3.650,5.9934,5.9870,1.8847,0.0066,-0.0033,0.0000
3.700,5.9941,5.9884,1.8855,0.0059,-0.0030,0.0000
3.750,5.9947,5.9896,1.8862,0.0052,-0.0027,0.0000
3.800,5.9953,5.9907,1.8870,0.0047,-0.0024,0.0000
3.850,5.9958,5.9917,1.8877,0.0042,-0.0021,0.0000
3.900,5.9962,5.9926,1.8885,0.0038,-0.0019,0.0000
3.950,5.9966,5.9933,1.8892,0.0034,-0.0017,0.0000
4.000,5.9970,5.9940,1.8899,0.0030,-0.0015,0.0000
4.050,5.9973,5.9947,1.8906,0.0027,-0.0014,0.0000
4.100,5.9976,5.9952,1.8912,0.0024,-0.0012,0.0000
4.150,5.9978,5.9957,1.8919,0.0022,-0.0011,0.0000
4.200,5.9981,5.9962,1.8925,0.0019,-0.0010,0.0000
4.250,5.9983,5.9966,1.8931,0.0017,-0.0009,0.0000
4.300,5.9985,5.9969,1.8937,0.0015,-0.0008,0.0000
4.350,5.9986,5.9973,1.8943,0.0014,-0.0007,0.0000
4.400,5.9988,5.9976,1.8949,0.0012,-0.0006,0.0000
4.450,5.9989,5.9978,1.8955,0.0011,-0.0006,0.0000
4.500,5.9990,5.9980,1.8960,0.0010,-0.0005,0.0000
4.550,5.9991,5.9983,1.8966,0.0009,-0.0004,0.0000
4.600,5.9992,5.9984,1.8971,0.0008,-0.0004,0.0000
4.650,5.9993,5.9986,1.8976,0.0007,-0.0004,0.0000
4.700,5.9994,5.9987,1.8981,0.0006,-0.0003,0.0000
4.750,5.9994,5.9989,1.8986,0.0006,-0.0003,0.0000
4.800,5.9995,5.9990,1.8991,0.0005,-0.0003,0.0000
4.850,5.9995,5.9991,1.8996,0.0005,-0.0002,0.0000
4.900,5.9996,5.9992,1.9001,0.0004,-0.0002,0.0000
4.950,5.9996,5.9993,1.9005,0.0004,-0.0002,0.0000
5.000,5.9997,5.9994,1.9010,0.0003,-0.0002,0.0000
5.050,5.9997,5.9994,1.9014,0.0003,-0.0001,0.0000
5.100,5.9997,5.9995,1.9018,0.0003,-0.0001,0.0000
5.150,5.9998,5.9995,1.9022,0.0002,-0.0001,0.0000
5.200,5.9998,5.9996,1.9026,0.0002,-0.0001,0.0000
5.250,5.9998,5.9996,1.9030,0.0002,-0.0001,0.0000
5.300,5.9998,5.9997,1.9034,0.0002,-0.0001,0.0000
5.350,5.9999,5.9997,1.9038,0.0001,-0.0001,0.0000
5.400,5.9999,5.9997,1.9042,0.0001,-0.0001,0.0000
5.450,5.9999,5.9998,1.9045,0.0001,-0.0001,0.0000
5.500,5.9999,5.9998,1.9049,0.0001,-0.0001,0.0000
5.550,5.9999,5.9998,1.9052,0.0001,-0.0000,0.0000
5.600,5.9999,5.9998,1.9056,0.0001,-0.0000,0.0000
5.650,5.9999,5.9998,1.9059,0.0001,-0.0000,0.0000
5.700,5.9999,5.9999,1.9062,0.0001,-0.0000,0.0000
5.750,5.9999,5.9999,1.9066,0.0001,-0.0000,0.0000
5.800,5.9999,5.9999,1.9069,0.0001,-0.0000,0.0000
5.850,6.0000,5.9999,1.9072,0.0000,-0.0000,0.0000
5.900,6.0000,5.9999,1.9075,0.0000,-0.0000,0.0000
5.950,6.0000,5.9999,1.9078,0.0000,-0.0000,0.0000
6.000,6.0000,5.9999,1.9080,0.0000,-0.0000,0.0000
6.050,6.0000,5.9999,1.9083,0.0000,-0.0000,0.0000
6.100,6.0000,5.9999,1.9086,0.0000,-0.0000,0.0000
6.150,6.0000,6.0000,1.9089,0.0000,-0.0000,0.0000
6.200,6.0000,6.0000,1.9091,0.0000,-0.0000,0.0000
6.250,6.0000,6.0000,1.9094,0.0000,-0.0000,0.0000
6.300,6.0000,6.0000,1.9096,0.0000,-0.0000,0.0000
6.350,6.0000,6.0000,1.9099,0.0000,-0.0000,0.0000
6.400,6.0000,6.0000,1.9101,0.0000,-0.0000,0.0000
6.450,6.0000,6.0000,1.9103,0.0000,-0.0000,0.0000
6.500,6.0000,6.0000,1.9106,0.0000,-0.0000,0.0000
6.550,6.0000,6.0000,1.9108,0.0000,-0.0000,0.0000
6.600,6.0000,6.0000,1.9110,0.0000,-0.0000,0.0000
6.650,6.0000,6.0000,1.9112,0.0000,-0.0000,0.0000
6.700,6.0000,6.0000,1.9114,0.0000,-0.0000,0.0000
6.750,6.0000,6.0000,1.9116,0.0000,-0.0000,0.0000
6.800,6.0000,6.0000,1.9118,0.0000,-0.0000,0.0000
6.850,6.0000,6.0000,1.9120,0.0000,-0.0000,0.0000
6.900,6.0000,6.0000,1.9122,0.0000,-0.0000,0.0000
6.950,6.0000,6.0000,1.9124,0.0000,-0.0000,0.0000
7.000,6.0000,6.0000,1.9126,0.0000,-0.0000,0.0000
7.050,6.0000,6.0000,1.9128,0.0000,-0.0000,0.0000
7.100,6.0000,6.0000,1.9129,0.0000,-0.0000,0.0000
7.150,6.0000,6.0000,1.9131,0.0000,-0.0000,0.0000
7.200,6.0000,6.0000,1.9133,0.0000,-0.0000,0.0000
7.250,6.0000,6.0000,1.9134,0.0000,-0.0000,0.0000
7.300,6.0000,6.0000,1.9136,0.0000,-0.0000,0.0000
7.350,6.0000,6.0000,1.9137,0.0000,-0.0000,0.0000
7.400,6.0000,6.0000,1.9139,0.0000,-0.0000,0.0000
7.450,6.0000,6.0000,1.9141,0.0000,-0.0000,0.0000
7.500,6.0000,6.0000,1.9142,0.0000,-0.0000,0.0000
7.550,6.0000,6.0000,1.9143,0.0000,-0.0000,0.0000
7.600,6.0000,6.0000,1.9145,0.0000,-0.0000,0.0000
7.650,6.0000,6.0000,1.9146,0.0000,-0.0000,0.0000
7.700,6.0000,6.0000,1.9147,0.0000,-0.0000,0.0000
7.750,6.0000,6.0000,1.9149,0.0000,-0.0000,0.0000
7.800,6.0000,6.0000,1.9150,0.0000,-0.0000,0.0000
7.850,6.0000,6.0000,1.9151,0.0000,-0.0000,0.0000
7.900,6.0000,6.0000,1.9153,0.0000,-0.0000,0.0000
7.950,6.0000,6.0000,1.9154,0.0000,-0.0000,0.0000
8.000,6.0000,6.0000,1.9155,0.0000,-0.0000,0.0000
8.050,6.0000,6.0000,1.9156,0.0000,-0.0000,0.0000
8.100,6.0000,6.0000,1.9157,0.0000,-0.0000,0.0000
8.150,6.0000,6.0000,1.9158,0.0000,-0.0000,0.0000
8.200,6.0000,6.0000,1.9159,0.0000,-0.0000,0.0000
8.250,6.0000,6.0000,1.9160,0.0000,-0.0000,0.0000
8.300,6.0000,6.0000,1.9161,0.0000,-0.0000,0.0000
8.350,6.0000,6.0000,1.9162,0.0000,-0.0000,0.0000
8.400,6.0000,6.0000,1.9163,0.0000,-0.0000,0.0000
8.450,6.0000,6.0000,1.9164,0.0000,-0.0000,0.0000
8.500,6.0000,6.0000,1.9165,0.0000,-0.0000,0.0000
8.550,6.0000,6.0000,1.9166,0.0000,-0.0000,0.0000
8.600,6.0000,6.0000,1.9167,0.0000,-0.0000,0.0000
8.650,6.0000,6.0000,1.9168,0.0000,-0.0000,0.0000
8.700,6.0000,6.0000,1.9169,0.0000,-0.0000,0.0000
8.750,6.0000,6.0000,1.9170,0.0000,-0.0000,0.0000
8.800,6.0000,6.0000,1.9170,0.0000,-0.0000,0.0000
8.850,6.0000,6.0000,1.9171,0.0000,-0.0000,0.0000
8.900,6.0000,6.0000,1.9172,0.0000,-0.0000,0.0000
8.950,6.0000,6.0000,1.9173,0.0000,-0.0000,0.0000
9.000,6.0000,6.0000,1.9173,0.0000,-0.0000,0.0000
9.050,6.0000,6.0000,1.9174,0.0000,-0.0000,0.0000
9.100,6.0000,6.0000,1.9175,0.0000,-0.0000,0.0000
9.150,6.0000,6.0000,1.9176,0.0000,-0.0000,0.0000
9.200,6.0000,6.0000,1.9176,0.0000,-0.0000,0.0000
9.250,6.0000,6.0000,1.9177,0.0000,-0.0000,0.0000
9.300,6.0000,6.0000,1.9178,0.0000,-0.0000,0.0000
9.350,6.0000,6.0000,1.9178,0.0000,-0.0000,0.0000
9.400,6.0000,6.0000,1.9179,0.0000,-0.0000,0.0000
9.450,6.0000,6.0000,1.9179,0.0000,-0.0000,0.0000
9.500,6.0000,6.0000,1.9180,0.0000,-0.0000,0.0000
9.550,6.0000,6.0000,1.9181,0.0000,-0.0000,0.0000
9.600,6.0000,6.0000,1.9181,0.0000,-0.0000,0.0000
9.650,6.0000,6.0000,1.9182,0.0000,-0.0000,0.0000
9.700,6.0000,6.0000,1.9182,0.0000,-0.0000,0.0000
9.750,6.0000,6.0000,1.9183,0.0000,-0.0000,0.0000
9.800,6.0000,6.0000,1.9183,0.0000,-0.0000,-0.0000
9.850,6.0000,6.0000,1.9184,0.0000,-0.0000,-0.0000
9.900,6.0000,6.0000,1.9184,0.0000,-0.0000,-0.0000
9.950,6.0000,6.0000,1.9185,0.0000,-0.0000,-0.0000
10.000,6.0000,6.0000,1.9185,0.0000,-0.0000,-0.0000
10.050,6.0000,6.0000,1.9186,0.0000,-0.0000,-0.0000
10.100,6.0000,6.0000,1.9186,0.0000,-0.0000,-0.0000
10.150,6.0000,6.0000,1.9187,0.0000,-0.0000,-0.0000
10.200,6.0000,6.0000,1.9187,0.0000,-0.0000,-0.0000
10.250,6.0000,6.0000,1.9188,0.0000,-0.0000,-0.0000
10.300,6.0000,6.0000,1.9188,0.0000,-0.0000,-0.0000
10.350,6.0000,6.0000,1.9188,0.0000,-0.0000,-0.0000
10.400,6.0000,6.0000,1.9189,0.0000,-0.0000,-0.0000
10.450,6.0000,6.0000,1.9189,0.0000,-0.0000,-0.0000
10.500,6.0000,6.0000,1.9190,0.0000,-0.0000,-0.0000
10.550,6.0000,6.0000,1.9190,0.0000,-0.0000,-0.0000
10.600,6.0000,6.0000,1.9190,0.0000,-0.0000,-0.0000
10.650,6.0000,6.0000,1.9191,0.0000,-0.0000,-0.0000
10.700,6.0000,6.0000,1.9191,0.0000,-0.0000,-0.0000
10.750,6.0000,6.0000,1.9191,0.0000,-0.0000,-0.0000
10.800,6.0000,6.0000,1.9192,0.0000,-0.0000,-0.0000
10.850,6.0000,6.0000,1.9192,0.0000,-0.0000,-0.0000
10.900,6.0000,6.0000,1.9192,0.0000,-0.0000,-0.0000
10.950,6.0000,6.0000,1.9193,0.0000,-0.0000,-0.0000
11.000,6.0000,6.0000,1.9193,0.0000,-0.0000,-0.0000
11.050,6.0000,6.0000,1.9193,0.0000,-0.0000,-0.0000
11.100,6.0000,6.0000,1.9194,0.0000,-0.0000,-0.0000
11.150,6.0000,6.0000,1.9194,0.0000,-0.0000,-0.0000
11.200,6.0000,6.0000,1.9194,0.0000,-0.0000,-0.0000
11.250,6.0000,6.0000,1.9194,0.0000,-0.0000,-0.0000
11.300,6.0000,6.0000,1.9195,0.0000,-0.0000,-0.0000
11.350,6.0000,6.0000,1.9195,0.0000,-0.0000,-0.0000
11.400,6.0000,6.0000,1.9195,0.0000,-0.0000,-0.0000
11.450,6.0000,6.0000,1.9195,0.0000,-0.0000,-0.0000
11.500,6.0000,6.0000,1.9196,0.0000,-0.0000,-0.0000
11.550,6.0000,6.0000,1.9196,0.0000,-0.0000,-0.0000
11.600,6.0000,6.0000,1.9196,0.0000,-0.0000,-0.0000
11.650,6.0000,6.0000,1.9196,0.0000,-0.0000,-0.0000
11.700,6.0000,6.0000,1.9197,0.0000,-0.0000,-0.0000
11.750,6.0000,6.0000,1.9197,0.0000,-0.0000,-0.0000
11.800,6.0000,6.0000,1.9197,0.0000,-0.0000,-0.0000
11.850,6.0000,6.0000,1.9197,0.0000,-0.0000,-0.0000
11.900,6.0000,6.0000,1.9197,0.0000,-0.0000,-0.0000
11.950,6.0000,6.0000,1.9198,0.0000,-0.0000,-0.0000
12.000,6.0000,6.0000,1.9198,0.0000,-0.0000,-0.0000
12.050,6.0000,6.0000,1.9198,0.0000,-0.0000,-0.0000
12.100,6.0000,6.0000,1.9198,0.0000,-0.0000,-0.0000
12.150,6.0000,6.0000,1.9198,0.0000,-0.0000,-0.0000
12.200,6.0000,6.0000,1.9199,0.0000,-0.0000,-0.0000
12.250,6.0000,6.0000,1.9199,0.0000,-0.0000,-0.0000
12.300,6.0000,6.0000,1.9199,0.0000,-0.0000,-0.0000
12.350,6.0000,6.0000,1.9199,0.0000,-0.0000,-0.0000
12.400,6.0000,6.0000,1.9199,0.0000,-0.0000,-0.0000
12.450,6.0000,6.0000,1.9199,0.0000,-0.0000,-0.0000
12.500,6.0000,6.0000,1.9200,0.0000,-0.0000,-0.0000
12.550,6.0000,6.0000,1.9200,0.0000,-0.0000,-0.0000
12.600,6.0000,6.0000,1.9200,0.0000,-0.0000,-0.0000
12.650,6.0000,6.0000,1.9200,0.0000,-0.0000,-0.0000
12.700,6.0000,6.0000,1.9200,0.0000,-0.0000,-0.0000
12.750,6.0000,6.0000,1.9200,0.0000,-0.0000,-0.0000
12.800,6.0000,6.0000,1.9200,0.0000,-0.0000,-0.0000
12.850,6.0000,6.0000,1.9201,0.0000,-0.0000,-0.0000
12.900,6.0000,6.0000,1.9201,0.0000,-0.0000,-0.0000
12.950,6.0000,6.0000,1.9201,0.0000,-0.0000,-0.0000
13.000,6.0000,6.0000,1.9201,0.0000,-0.0000,-0.0000
13.050,6.0000,6.0000,1.9201,0.0000,-0.0000,-0.0000
13.100,6.0000,6.0000,1.9201,0.0000,-0.0000,-0.0000
13.150,6.0000,6.0000,1.9201,0.0000,-0.0000,-0.0000
13.200,6.0000,6.0000,1.9201,0.0000,-0.0000,-0.0000
13.250,6.0000,6.0000,1.9202,0.0000,-0.0000,-0.0000
13.300,6.0000,6.0000,1.9202,0.0000,-0.0000,-0.0000
13.350,6.0000,6.0000,1.9202,0.0000,-0.0000,-0.0000
13.400,6.0000,6.0000,1.9202,0.0000,-0.0000,-0.0000
13.450,6.0000,6.0000,1.9202,0.0000,-0.0000,-0.0000
13.500,6.0000,6.0000,1.9202,0.0000,-0.0000,-0.0000
13.550,6.0000,6.0000,1.9202,0.0000,-0.0000,-0.0000
13.600,6.0000,6.0000,1.9202,0.0000,-0.0000,-0.0000
13.650,6.0000,6.0000,1.9202,0.0000,-0.0000,-0.0000
13.700,6.0000,6.0000,1.9202,0.0000,-0.0000,-0.0000
13.750,6.0000,6.0000,1.9203,0.0000,-0.0000,-0.0000
13.800,6.0000,6.0000,1.9203,0.0000,-0.0000,-0.0000
13.850,6.0000,6.0000,1.9203,0.0000,-0.0000,-0.0000
13.900,6.0000,6.0000,1.9203,0.0000,-0.0000,-0.0000
13.950,6.0000,6.0000,1.9203,0.0000,-0.0000,-0.0000
14.000,6.0000,6.0000,1.9203,0.0000,-0.0000,-0.0000
14.050,6.0000,6.0000,1.9203,0.0000,-0.0000,-0.0000
14.100,6.0000,6.0000,1.9203,0.0000,-0.0000,-0.0000
14.150,6.0000,6.0000,1.9203,0.0000,-0.0000,-0.0000
14.200,6.0000,6.0000,1.9203,0.0000,-0.0000,-0.0000
14.250,6.0000,6.0000,1.9203,0.0000,-0.0000,-0.0000
14.300,6.0000,6.0000,1.9203,0.0000,-0.0000,-0.0000
14.350,6.0000,6.0000,1.9203,0.0000,-0.0000,-0.0000
14.400,6.0000,6.0000,1.9204,0.0000,-0.0000,-0.0000
14.450,6.0000,6.0000,1.9204,0.0000,-0.0000,-0.0000
14.500,6.0000,6.0000,1.9204,0.0000,-0.0000,-0.0000
14.550,6.0000,6.0000,1.9204,0.0000,-0.0000,-0.0000
14.600,6.0000,6.0000,1.9204,0.0000,-0.0000,-0.0000
14.650,6.0000,6.0000,1.9204,0.0000,-0.0000,-0.0000
14.700,6.0000,6.0000,1.9204,0.0000,-0.0000,-0.0000
14.750,6.0000,6.0000,1.9204,0.0000,-0.0000,-0.0000
14.800,6.0000,6.0000,1.9204,0.0000,-0.0000,-0.0000
14.850,6.0000,6.0000,1.9204,0.0000,-0.0000,-0.0000
14.900,6.0000,6.0000,1.9204,0.0000,-0.0000,-0.0000
14.950,6.0000,6.0000,1.9204,0.0000,-0.0000,-0.0000
15.000,6.0000,6.0000,1.9204,0.0000,-0.0000,-0.0000
15.050,6.0000,6.0000,1.9204,0.0000,-0.0000,-0.0000
15.100,6.0000,6.0000,1.9204,0.0000,-0.0000,-0.0000
15.150,6.0000,6.0000,1.9204,0.0000,-0.0000,-0.0000
15.200,6.0000,6.0000,1.9204,0.0000,-0.0000,-0.0000
15.250,6.0000,6.0000,1.9204,0.0000,-0.0000,-0.0000
15.300,6.0000,6.0000,1.9205,0.0000,-0.0000,-0.0000
15.350,6.0000,6.0000,1.9205,0.0000,-0.0000,-0.0000
15.400,6.0000,6.0000,1.9205,0.0000,-0.0000,-0.0000
15.450,6.0000,6.0000,1.9205,0.0000,-0.0000,-0.0000
15.500,6.0000,6.0000,1.9205,0.0000,-0.0000,-0.0000
15.550,6.0000,6.0000,1.9205,0.0000,-0.0000,-0.0000
15.600,6.0000,6.0000,1.9205,0.0000,-0.0000,-0.0000
15.650,6.0000,6.0000,1.9205,0.0000,-0.0000,-0.0000
15.700,6.0000,6.0000,1.9205,0.0000,-0.0000,-0.0000
15.750,6.0000,6.0000,1.9205,0.0000,-0.0000,-0.0000
15.800,6.0000,6.0000,1.9205,0.0000,-0.0000,-0.0000
15.850,6.0000,6.0000,1.9205,0.0000,-0.0000,-0.0000
15.900,6.0000,6.0000,1.9205,0.0000,-0.0000,-0.0000
15.950,6.0000,6.0000,1.9205,0.0000,-0.0000,-0.0000
16.000,6.0000,6.0000,1.9205,0.0000,-0.0000,-0.0000
16.050,6.0000,6.0000,1.9205,0.0000,-0.0000,-0.0000
16.100,6.0000,6.0000,1.9205,0.0000,-0.0000,-0.0000
16.150,6.0000,6.0000,1.9205,0.0000,0.0000,-0.0000
16.200,6.0000,6.0000,1.9205,0.0000,0.0000,-0.0000
16.250,6.0000,6.0000,1.9205,0.0000,0.0000,0.0000
16.300,6.0000,6.0000,1.9205,0.0000,0.0000,0.0000
16.350,6.0000,6.0000,1.9205,0.0000,0.0000,-0.0000
16.400,6.0000,6.0000,1.9205,0.0000,0.0000,-0.0000
16.450,6.0000,6.0000,1.9205,-0.0000,-0.0000,-0.0000
16.500,6.0000,6.0000,1.9205,-0.0000,-0.0000,-0.0000
16.550,6.0000,6.0000,1.9205,-0.0000,0.0000,-0.0000
16.600,6.0000,6.0000,1.9205,-0.0000,0.0000,-0.0000
16.650,6.0000,6.0000,1.9205,-0.0000,-0.0000,-0.0000
16.700,6.0000,6.0000,1.9205,-0.0000,0.0000,-0.0000
16.750,6.0000,6.0000,1.9205,-0.0000,0.0000,-0.0000
16.800,6.0000,6.0000,1.9205,-0.0000,0.0000,-0.0000
16.850,6.0000,6.0000,1.9206,-0.0000,-0.0000,-0.0000
16.900,6.0000,6.0000,1.9206,-0.0000,-0.0000,-0.0000
16.950,6.0000,6.0000,1.9206,-0.0000,-0.0000,-0.0000
17.000,6.0000,6.0000,1.9206,-0.0000,0.0000,-0.0000
17.050,6.0000,6.0000,1.9206,0.0000,0.0000,-0.0000
17.100,6.0000,6.0000,1.9206,0.0000,0.0000,-0.0000
17.150,6.0000,6.0000,1.9206,0.0000,-0.0000,-0.0000
17.200,6.0000,6.0000,1.9206,0.0000,-0.0000,-0.0000
17.250,6.0000,6.0000,1.9206,0.0000,0.0000,-0.0000
17.300,6.0000,6.0000,1.9206,-0.0000,0.0000,-0.0000
17.350,6.0000,6.0000,1.9206,-0.0000,0.0000,-0.0000
17.400,6.0000,6.0000,1.9206,-0.0000,-0.0000,-0.0000
17.450,6.0000,6.0000,1.9206,-0.0000,-0.0000,-0.0000
17.500,6.0000,6.0000,1.9206,-0.0000,-0.0000,-0.0000
17.550,6.0000,6.0000,1.9206,-0.0000,-0.0000,-0.0000
17.600,6.0000,6.0000,1.9206,-0.0000,-0.0000,-0.0000
17.650,6.0000,6.0000,1.9206,-0.0000,-0.0000,-0.0000
17.700,6.0000,6.0000,1.9206,0.0000,-0.0000,-0.0000
17.750,6.0000,6.0000,1.9206,0.0000,-0.0000,-0.0000
17.800,6.0000,6.0000,1.9206,0.0000,0.0000,-0.0000
17.850,6.0000,6.0000,1.9206,0.0000,-0.0000,-0.0000
17.900,6.0000,6.0000,1.9206,0.0000,-0.0000,-0.0000
17.950,6.0000,6.0000,1.9206,0.0000,-0.0000,-0.0000
18.000,6.0000,6.0000,1.9206,0.0000,0.0000,-0.0000
18.050,6.0000,6.0000,1.9206,-0.0000,0.0000,-0.0000
18.100,6.0000,6.0000,1.9206,0.0000,0.0000,-0.0000
18.150,6.0000,6.0000,1.9206,0.0000,0.0000,-0.0000
18.200,6.0000,6.0000,1.9206,0.0000,0.0000,-0.0000
18.250,6.0000,6.0000,1.9206,0.0000,0.0000,-0.0000
18.300,6.0000,6.0000,1.9206,0.0000,0.0000,-0.0000
18.350,6.0000,6.0000,1.9206,0.0000,0.0000,-0.0000
18.400,6.0000,6.0000,1.9206,-0.0000,0.0000,-0.0000
18.450,6.0000,6.0000,1.9206,-0.0000,0.0000,-0.0000
18.500,6.0000,6.0000,1.9206,-0.0000,-0.0000,-0.0000
18.550,6.0000,6.0000,1.9206,-0.0000,-0.0000,-0.0000
18.600,6.0000,6.0000,1.9206,-0.0000,-0.0000,-0.0000
18.650,6.0000,6.0000,1.9206,-0.0000,-0.0000,-0.0000
18.700,6.0000,6.0000,1.9206,0.0000,-0.0000,-0.0000
18.750,6.0000,6.0000,1.9206,0.0000,-0.0000,-0.0000
18.800,6.0000,6.0000,1.9206,0.0000,-0.0000,-0.0000
18.850,6.0000,6.0000,1.9206,0.0000,-0.0000,-0.0000
18.900,6.0000,6.0000,1.9206,0.0000,-0.0000,-0.0000
18.950,6.0000,6.0000,1.9206,-0.0000,-0.0000,-0.0000
19.000,6.0000,6.0000,1.9206,-0.0000,0.0000,-0.0000
19.050,6.0000,6.0000,1.9206,0.0000,0.0000,-0.0000
19.100,6.0000,6.0000,1.9206,0.0000,0.0000,-0.0000
19.150,6.0000,6.0000,1.9206,-0.0000,0.0000,-0.0000
19.200,6.0000,6.0000,1.9206,-0.0000,0.0000,-0.0000
19.250,6.0000,6.0000,1.9206,-0.0000,-0.0000,-0.0000
19.300,6.0000,6.0000,1.9206,0.0000,-0.0000,0.0000
19.350,6.0000,6.0000,1.9206,0.0000,0.0000,0.0000
19.400,6.0000,6.0000,1.9206,0.0000,-0.0000,-0.0000
19.450,6.0000,6.0000,1.9206,-0.0000,-0.0000,-0.0000
19.500,6.0000,6.0000,1.9206,-0.0000,0.0000,-0.0000
19.550,6.0000,6.0000,1.9206,-0.0000,0.0000,-0.0000
19.600,6.0000,6.0000,1.9206,-0.0000,0.0000,-0.0000
19.650,6.0000,6.0000,1.9206,-0.0000,0.0000,-0.0000
19.700,6.0000,6.0000,1.9206,0.0000,0.0000,-0.0000
19.750,6.0000,6.0000,1.9206,0.0000,-0.0000,-0.0000
19.800,6.0000,6.0000,1.9206,-0.0000,-0.0000,-0.0000
